200.833	19611.5
202.102	19581.4
203.371	19592.4
204.639	19597.9
205.907	19597.7
207.175	19575.1
208.442	19595.5
209.71	19476.4
210.977	19502
212.244	19462.9
213.511	19547.1
214.777	19624.8
216.042	19651.2
217.309	19677.6
218.575	19708.1
219.84	19735
221.106	19760.2
222.371	19787.2
223.635	19816.6
224.9	19850
226.165	19886
227.429	19924.2
228.694	19964.3
229.956	20007.1
231.22	20053.8
232.484	20104.1
233.747	20157.1
235.011	20210.4
236.272	20257.6
237.535	20301
238.798	20332
240.06	20359.8
241.321	20386.8
242.583	20413.1
243.845	20438.3
245.105	20468.5
246.367	20488
247.628	20501.9
248.888	20512.6
250.149	20520.2
251.409	20523.9
252.67	20523.3
253.928	20527.3
255.189	20535.3
256.447	20561.8
257.707	20586
258.966	20607.4
260.224	20627
261.483	20646.8
262.742	20665
263.999	20678.3
265.257	20683.8
266.514	20685.6
267.772	20691.6
269.028	20710
270.286	20732.2
271.543	20760.9
272.799	20797.2
274.056	20839.4
275.311	20869
276.568	20873.8
277.823	20881.6
279.079	20895
280.333	20912.1
281.589	20938.5
282.843	20974.7
284.099	21011.5
285.352	21049.6
286.607	21080.1
287.86	21104.9
289.114	21125.6
290.368	21139.6
291.621	21153.5
292.875	21171.4
294.127	21191.3
295.38	21214
296.632	21230.6
297.884	21249
299.137	21267.5
300.388	21286.6
301.641	21305.1
302.891	21327.2
304.142	21344.5
305.394	21349.7
306.644	21360.1
307.894	21360.2
309.146	21336.8
310.395	21337.9
311.645	21348.1
312.895	21369.4
314.144	21393.9
315.393	21423
316.642	21451.7
317.892	21470.6
319.14	21487.5
320.388	21501.1
321.637	21512
322.885	21520.5
324.132	21525.7
325.38	21547.6
326.628	21570.3
327.875	21589.6
329.122	21606.9
330.368	21622.1
331.614	21633.8
332.862	21621.3
334.108	21633.8
335.353	21650
336.599	21674.4
337.844	21710.6
339.089	21740
340.335	21760.8
341.58	21771.3
342.824	21788.9
344.068	21805.2
345.312	21815.5
346.556	21832.3
347.8	21851
349.043	21858.8
350.286	21863.3
351.53	21864.9
352.774	21866.5
354.016	21867.8
355.259	21869.7
356.501	21871.5
357.743	21872.1
358.985	21872.7
360.227	21875.2
361.468	21881.2
362.709	21894.1
363.95	21910.5
365.191	21931.6
366.432	21957.6
367.672	21989.5
368.912	22026.1
370.152	22027.9
371.392	22006.5
372.632	21991.2
373.871	21982.7
375.11	21980.5
376.348	21985.3
377.587	22014
378.825	22037
380.064	22057.1
381.302	22073.6
382.54	22085.1
383.778	22083.1
385.016	22082.7
386.253	22084
387.489	22089.4
388.726	22100.8
389.963	22118.7
391.199	22140.3
392.436	22165.5
393.672	22192.6
394.907	22220.6
396.142	22246.3
397.378	22272
398.614	22290.7
399.849	22302.9
401.082	22299.8
402.317	22304.3
403.552	22312.8
404.786	22323.7
406.019	22335.4
407.253	22338.5
408.487	22342.3
409.721	22347.5
410.953	22350.4
412.186	22367.4
413.419	22391.7
414.651	22416.8
415.883	22440.4
417.116	22458.4
418.347	22471.4
419.579	22462.7
420.811	22454.4
422.041	22441.8
423.272	22426.1
424.504	22415.4
425.733	22402.2
426.964	22384.5
428.194	22387.5
429.424	22408.3
430.654	22428.6
431.883	22444.4
433.113	22458.7
434.341	22471.7
435.571	22483.5
436.799	22494.2
438.028	22504.6
439.257	22514.4
440.484	22523.6
441.713	22531.6
442.94	22538.3
444.168	22541.2
445.394	22540.4
446.622	22546.7
447.848	22554.1
449.076	22561.4
450.301	22568.1
451.528	22575.6
452.754	22582.8
453.979	22590.6
455.205	22605.6
456.43	22620.7
457.656	22635.3
458.88	22648.4
460.106	22659.1
461.33	22666.6
462.554	22672.1
463.779	22676.4
465.002	22678.6
466.225	22678.8
467.45	22676.7
468.672	22672.2
469.895	22665.3
471.119	22656
472.341	22644
473.563	22634.5
474.786	22644.6
476.008	22660.9
477.229	22659.7
478.452	22645.2
479.673	22631.4
480.894	22615.6
482.115	22589.2
483.337	22572.6
484.557	22562.9
485.777	22559.8
486.997	22561.2
488.218	22569.1
489.438	22580.6
490.657	22594.8
491.876	22607.8
493.096	22614.3
494.315	22619.6
495.533	22617.9
496.752	22613.3
497.97	22604.6
499.188	22593.6
500.407	22583.2
501.625	22586.1
502.842	22589.6
504.059	22597.1
505.276	22605.4
506.493	22619.5
507.71	22591.7
508.926	22593
510.142	22586.7
511.358	22604.9
512.575	22629.9
513.791	22668.3
515.006	22698.4
516.222	22717.6
517.437	22732.7
518.651	22744.1
519.866	22751.6
521.081	22756.9
522.295	22758.7
523.509	22757.2
524.723	22752.1
525.937	22743.9
527.15	22731.9
528.363	22718.3
529.576	22714.1
530.789	22725.8
532.002	22736.3
533.215	22745.9
534.426	22756.5
535.638	22769.3
536.85	22783.5
538.061	22798
539.273	22804.5
540.484	22806.3
541.695	22813
542.906	22820.3
544.117	22825.6
545.327	22828.1
546.537	22823.6
547.747	22816.9
548.957	22816.1
550.167	22819.8
551.377	22827.4
552.585	22843.2
553.794	22854.4
555.003	22863.4
556.212	22870.1
557.421	22870
558.628	22867.6
559.836	22862.1
561.044	22853.3
562.252	22841.6
563.458	22827.1
564.666	22812
565.873	22799
567.08	22789.6
568.286	22794.3
569.493	22797.8
570.699	22805.2
571.904	22814.3
573.111	22824.7
574.317	22836.8
575.521	22851.2
576.727	22865.4
577.932	22878.3
579.136	22890
580.341	22900.6
581.544	22901.4
582.749	22871.4
583.954	22860.3
585.156	22868.4
586.361	22878.3
587.563	22890.6
588.767	22906.2
589.97	22910.3
591.172	22903.6
592.375	22884.1
593.577	22854.7
594.78	22823.1
595.981	22811.8
597.183	22861.7
598.384	22867.3
599.586	22867.7
600.786	22868.6
601.988	22850.3
603.188	22829.9
604.389	22809.4
605.589	22791.4
606.79	22777.4
607.989	22776.2
609.188	22777.3
610.389	22768.8
611.587	22761.5
612.787	22738.7
613.986	22699.2
615.184	22700.3
616.383	22712.5
617.581	22847.9
618.78	22775.4
619.977	22712.3
621.174	22662.1
622.373	22628.9
623.57	22637.5
624.766	22615.3
625.964	22597.2
627.16	22578.4
628.356	22561
629.554	22550
630.749	22537.8
631.945	22537.6
633.14	22524.4
634.337	22510.8
635.532	22497.5
636.726	22485.7
637.921	22479.3
639.117	22474.2
640.311	22471.8
641.505	22472.1
642.699	22474.8
643.892	22480.1
645.087	22487.8
646.28	22497.6
647.473	22508.5
648.666	22516.9
649.859	22524.4
651.051	22531.7
652.245	22533
653.437	22535.2
654.629	22534.8
655.821	22537.3
657.012	22543.1
658.204	22550.1
659.395	22554.7
660.586	22558.7
661.777	22561.4
662.967	22562.5
664.158	22562.6
665.349	22559.5
666.539	22555.3
667.729	22550.2
668.919	22546.3
670.109	22555.7
671.298	22566.8
672.487	22580.8
673.676	22597.4
674.865	22617.6
676.053	22640.5
677.242	22665.6
678.43	22690.8
679.616	22697.4
680.804	22683.8
681.992	22652.1
683.179	22632.6
684.366	22615.2
685.554	22597
686.74	22585.2
687.927	22575.5
689.114	22568.6
690.3	22563.5
691.486	22559.5
692.671	22556.3
693.856	22552
695.042	22546.4
696.227	22536.7
697.413	22522.2
698.598	22501.8
699.781	22482.9
700.966	22466.2
702.15	22453
703.334	22440.2
704.518	22426.5
705.701	22409.7
706.885	22386.4
708.068	22360
709.252	22336.1
710.433	22324
711.616	22315.9
712.799	22310.1
713.98	22307.3
715.163	22306.4
716.345	22307.9
717.527	22308.6
718.707	22305.2
719.889	22305.8
721.071	22305.4
722.25	22311
723.432	22329.8
724.611	22350.5
725.792	22365.2
726.972	22373.8
728.151	22373.5
729.332	22365.2
730.512	22350.3
731.69	22339.3
732.87	22327.6
734.048	22326.7
735.227	22356.4
736.405	22391.6
737.584	22413.3
738.761	22421.2
739.94	22422.3
741.117	22422.4
742.295	22420.4
743.471	22414.2
744.649	22406.5
745.825	22401.3
747.003	22396.5
748.179	22400.9
749.356	22418.9
750.531	22432.8
751.708	22441.6
752.883	22446.2
754.059	22445.6
755.234	22441.3
756.409	22434.2
757.585	22427.1
758.759	22425.9
759.934	22419.9
761.108	22404.7
762.282	22384.4
763.456	22361.8
764.63	22336.8
765.803	22328.3
766.977	22349.4
768.15	22353.1
769.323	22361.7
770.496	22375.8
771.668	22345.2
772.841	22301.6
774.014	22266.1
775.185	22240.4
776.357	22225.5
777.528	22223
778.701	22233.2
779.872	22227.9
781.042	22235.6
782.213	22216.7
783.383	22181
784.555	22145.8
785.725	22133.9
786.895	22126
788.064	22122.8
789.234	22116.8
790.404	22105.7
791.573	22092.6
792.742	22079.6
793.911	22064.9
795.08	22048.3
796.248	22031
797.416	22034.4
798.584	22048.6
799.753	22058.4
800.921	22066.1
802.088	22067.2
803.256	22065.2
804.423	22060.2
805.59	22055.9
806.756	22044.9
807.923	22031
809.089	22024.5
810.256	22032.4
811.422	22052
812.587	22048.3
813.753	22044.8
814.918	22002.8
816.084	22006.1
817.249	22015.9
818.414	22024.6
819.578	22031.7
820.743	22034
821.907	22033.5
823.072	22030.5
824.236	22022.9
825.399	22031
826.562	22041.4
827.725	22060.9
828.889	22076.8
830.052	22094.5
831.215	22096.1
832.377	22088.2
833.54	22081.9
834.701	22074.6
835.863	22070.4
837.025	22066.9
838.187	22064.8
839.349	22064
840.51	22064.7
841.67	22066.6
842.831	22070
843.992	22073.5
845.153	22070
846.312	22051.4
847.473	22020.1
848.633	21998.9
849.793	21984.9
850.951	21979.6
852.111	21982.9
853.27	21989.7
854.428	21995.6
855.588	21992.4
856.747	21988.7
857.904	21954.4
859.063	21924
860.221	21900.3
861.378	21883.3
862.536	21867.9
863.694	21852.7
864.85	21836.4
866.008	21814.2
867.164	21790
868.321	21766.7
869.478	21743.9
870.633	21728.4
871.79	21718
872.945	21715.7
874.101	21727.2
875.256	21715.9
876.412	21661.6
877.566	21596.9
878.722	21618.3
879.876	21630.2
881.031	21640.6
882.185	21647
883.34	21635.8
884.493	21573
885.647	21553.1
886.8	21539.8
887.954	21539.2
889.107	21543
890.261	21546.3
891.413	21549.6
892.565	21551.5
893.718	21544.8
894.87	21538.1
896.023	21530
897.174	21521.4
898.326	21511.6
899.478	21501.7
900.629	21496
901.779	21494.3
902.931	21502.9
904.081	21516.8
905.231	21526.7
906.383	21536.7
907.532	21546.6
908.682	21552.6
909.831	21558.2
910.982	21562.9
912.131	21568.2
913.28	21573
914.429	21578.3
915.578	21581.3
916.727	21583
917.875	21583.7
919.023	21582.7
920.171	21580.7
921.32	21577.9
922.467	21575.8
923.614	21573.5
924.761	21570.5
925.908	21561
927.055	21530.1
928.203	21546.2
929.349	21572.3
930.496	21581
931.642	21580.6
932.787	21569.1
933.933	21551.2
935.079	21540.3
936.224	21529.8
937.369	21520.8
938.514	21515.8
939.659	21511.8
940.804	21511.1
941.948	21512
943.092	21513.5
944.236	21513.7
945.38	21498.7
946.524	21481.1
947.667	21452.5
948.811	21428.5
949.954	21407.1
951.097	21390.3
952.24	21391.8
953.383	21390.6
954.525	21395.2
955.667	21401.7
956.81	21405.7
957.952	21389.1
959.093	21357.1
960.235	21332.3
961.376	21310.5
962.516	21290.9
963.658	21273.9
964.798	21259.9
965.939	21248.4
967.08	21239.3
968.22	21232.6
969.359	21228.6
970.499	21226.4
971.639	21222.7
972.779	21216.6
973.918	21205.7
975.056	21180.6
976.195	21172.6
977.334	21277.7
978.473	21149.7
979.61	21130.5
980.749	21129.2
981.887	21124.5
983.024	21123.4
984.162	21136.3
985.3	21142.9
986.437	21156.7
987.573	21169.4
988.711	21178.8
989.848	21175.9
990.983	21172.3
992.12	21149.3
993.255	21130.9
994.392	21052.9
995.528	21240.7
996.662	21209
997.798	21201.5
998.933	21176.7
1000.07	21163
1001.2	21141.4
1002.34	21130.7
1003.47	21133.8
1004.61	21142.9
1005.74	21158.8
1006.87	21161.1
1008.01	21172.5
1009.14	21175.9
1010.27	21168.6
1011.41	21168.6
1012.54	21175.4
1013.67	21187.4
1014.81	21207
1015.94	21206.4
1017.07	21195.5
1018.2	21185.4
1019.33	21171.2
1020.47	21158.4
1021.6	21145.5
1022.73	21131.4
1023.86	21116.3
1024.99	21099.9
1026.12	21081.9
1027.25	21062.2
1028.38	21038.3
1029.51	21014.8
1030.64	20991.4
1031.77	20971.9
1032.9	20964.2
1034.03	20955.2
1035.16	20944.2
1036.29	20936.2
1037.42	20921.3
1038.55	20907.5
1039.67	20882.7
1040.8	20855.8
1041.93	20828.5
1043.06	20803
1044.19	20803.9
1045.31	20798.6
1046.44	20788.4
1047.57	20767.7
1048.69	20741.2
1049.82	20727.8
1050.95	20726.6
1052.08	20719.4
1053.2	20711.1
1054.33	20702.4
1055.45	20692.6
1056.58	20682.8
1057.7	20670.6
1058.83	20658.5
1059.95	20647
1061.08	20637.5
1062.2	20641.2
1063.33	20646
1064.45	20657.4
1065.58	20640.1
1066.7	20622.5
1067.83	20607.2
1068.95	20598.3
1070.07	20598.4
1071.2	20602.1
1072.32	20602
1073.44	20602.5
1074.56	20602.9
1075.69	20603.1
1076.81	20603.1
1077.93	20602.8
1079.05	20602
1080.17	20600.3
1081.3	20599.3
1082.42	20600.4
1083.54	20602.9
1084.66	20609.6
1085.78	20610.3
1086.9	20598
1088.02	20579.2
1089.14	20560.3
1090.26	20564
1091.38	20569.9
1092.5	20586.6
1093.62	20601.9
1094.74	20642.2
1095.86	20636.1
1096.98	20613.5
1098.1	20601.7
1099.22	20595.2
1100.34	20595.2
1101.45	20604
1102.57	20611.9
1103.69	20619.3
1104.81	20615.8
1105.93	20607.5
1107.04	20585.4
1108.16	20555.3
1109.28	20523.8
1110.4	20514.3
1111.51	20508.2
1112.63	20501.5
1113.75	20492.2
1114.86	20481.1
1115.98	20468.2
1117.09	20450.9
1118.21	20430.8
1119.32	20408.4
1120.44	20387
1121.55	20384.2
1122.67	20361.4
1123.78	20341.3
1124.9	20291.1
1126.01	20251.7
1127.13	20226.6
1128.24	20219.7
1129.35	20224.7
1130.47	20218.8
1131.58	20207
1132.7	20194.2
1133.81	20172.6
1134.92	20144.1
1136.03	20109.7
1137.15	20077.3
1138.26	20047.8
1139.37	20027.4
1140.48	20011.1
1141.59	19999.8
1142.71	19993.8
1143.82	19992.6
1144.93	19996.9
1146.04	20004.5
1147.15	20004.7
1148.26	19936.8
1149.37	19894.1
1150.48	19862.4
1151.59	19828.9
1152.7	19817.9
1153.81	19821.9
1154.92	19834.1
1156.03	19846.4
1157.14	19860.4
1158.25	19862
1159.36	19859.3
1160.47	19854.7
1161.58	19851
1162.68	19843.6
1163.79	19833.8
1164.9	19824.1
1166.01	19814.3
1167.12	19805.3
1168.22	19800
1169.33	19805.2
1170.44	19752.1
1171.55	19788.1
1172.65	19786.3
1173.76	19785.2
1174.87	19790.4
1175.97	19803.4
1177.08	19804.4
1178.18	19798.3
1179.29	19781.3
1180.4	19757
1181.5	19742.7
1182.61	19750.7
1183.71	19801.1
1184.82	19840.4
1185.92	19861.3
1187.02	19874.5
1188.13	19823.5
1189.23	19806.7
1190.34	19790.4
1191.44	19774.8
1192.54	19760.4
1193.65	19750.3
1194.75	19741.6
1195.85	19734.9
1196.96	19730.5
1198.06	19728.4
1199.16	19729.8
1200.26	19743.2
1201.37	19762.9
1202.47	19785
1203.57	19809.2
1204.67	19836
1205.77	19854.2
1206.87	19848.8
1207.97	19829.7
1209.08	19792.4
1210.18	19757.8
1211.28	19725.8
1212.38	19719.2
1213.48	19721.3
1214.58	19740.7
1215.68	19741.7
1216.78	19737.2
1217.88	19726.7
1218.98	19715.8
1220.07	19702.2
1221.17	19686.8
1222.27	19668.9
1223.37	19650.9
1224.47	19632.4
1225.57	19614.2
1226.66	19599.1
1227.76	19582.3
1228.86	19568.7
1229.96	19557
1231.06	19548.4
1232.15	19549
1233.25	19542.6
1234.35	19527.3
1235.44	19500.6
1236.54	19473.7
1237.63	19447.7
1238.73	19420.3
1239.83	19404.6
1240.92	19396.3
1242.02	19394.6
1243.11	19392.5
1244.21	19391.1
1245.3	19388.9
1246.4	19379.1
1247.49	19370.3
1248.59	19363.7
1249.68	19356.1
1250.78	19352.5
1251.87	19353.2
1252.96	19351.3
1254.06	19347.4
1255.15	19341.4
1256.24	19332.6
1257.34	19316.4
1258.43	19298.3
1259.52	19278.7
1260.62	19265.7
1261.71	19258.3
1262.8	19256.5
1263.89	19263.2
1264.98	19268.3
1266.08	19268.2
1267.17	19230.8
1268.26	19217.8
1269.35	19201
1270.44	19207.5
1271.53	19219.5
1272.62	19241.6
1273.71	19271
1274.8	19291
1275.89	19299.2
1276.98	19293.6
1278.07	19286.8
1279.16	19281.1
1280.25	19275.9
1281.34	19273.9
1282.43	19271.9
1283.52	19279.3
1284.61	19282.2
1285.69	19286.6
1286.78	19286.5
1287.87	19284.1
1288.96	19283.9
1290.05	19290.4
1291.13	19298.1
1292.22	19306.8
1293.31	19316.6
1294.4	19326.3
1295.48	19334.3
1296.57	19334
1297.66	19316
1298.74	19298
1299.83	19284.3
1300.92	19274.2
1302	19267.3
1303.09	19267.3
1304.17	19289
1305.26	19302.9
1306.34	19307.8
1307.43	19304.5
1308.51	19293
1309.6	19268.6
1310.68	19246.8
1311.76	19230.8
1312.85	19224.1
1313.93	19219.2
1315.02	19215.6
1316.1	19211.5
1317.18	19199.3
1318.27	19183.5
1319.35	19174.2
1320.43	19165
1321.52	19161.6
1322.6	19159.9
1323.68	19162.6
1324.76	19148.8
1325.85	19128.7
1326.93	19116.3
1328.01	19108.5
1329.09	19104
1330.17	19099.9
1331.25	19095
1332.33	19088
1333.41	19072.1
1334.49	19063.9
1335.58	19051.9
1336.65	19044.4
1337.74	19033.5
1338.82	19024.5
1339.89	19015.7
1340.97	19008.4
1342.05	19000.6
1343.13	18991.9
1344.21	18978.4
1345.29	18966.2
1346.37	18955.6
1347.45	18943.8
1348.53	18930.3
1349.6	18918.6
1350.68	18911.8
1351.76	18911.2
1352.84	18910.8
1353.92	18914.3
1354.99	18917.8
1356.07	18922.9
1357.15	18925.5
1358.22	18927.1
1359.3	18927.3
1360.38	18914.8
1361.45	18906.9
1362.53	18900.9
1363.61	18897.5
1364.68	18898.7
1365.76	18911.4
1366.83	18922.4
1367.91	18929.1
1368.98	18936.2
1370.06	18944.2
1371.13	18950
1372.21	18948.4
1373.28	18936.9
1374.35	18922.3
1375.43	18905.5
1376.5	18886.5
1377.58	18870.5
1378.65	18863.2
1379.72	18858.2
1380.8	18855.9
1381.87	18850
1382.94	18843.6
1384.01	18835
1385.09	18827.8
1386.16	18821.7
1387.23	18817.7
1388.3	18819.7
1389.38	18824.7
1390.45	18829.9
1391.52	18835.6
1392.59	18831.3
1393.66	18810.2
1393.92	18802.9
1395	18786.7
1396.07	18767.7
1397.15	18756
1398.22	18750.8
1399.3	18753
1400.38	18753.7
1401.45	18759.2
1402.53	18766
1403.6	18770.4
1404.68	18772.6
1405.75	18745.3
1406.82	18699.6
1407.9	18667.3
1408.97	18662.7
1410.05	18729.2
1411.12	18664.5
1412.19	18637.8
1413.27	18632
1414.34	18618.9
1415.41	18603.9
1416.49	18588.5
1417.56	18576.7
1418.63	18573.2
1419.7	18573.8
1420.78	18578.5
1421.85	18588
1422.92	18601.7
1423.99	18624.5
1425.06	18637.5
1426.14	18606
1427.21	18573.4
1428.28	18540.8
1429.35	18511
1430.42	18498.4
1431.49	18493.5
1432.56	18490.1
1433.63	18495.5
1434.7	18504.9
1435.77	18517.5
1436.84	18512.2
1437.91	18507.7
1438.98	18499.1
1440.05	18487.8
1441.12	18473.3
1442.18	18456.2
1443.25	18435.9
1444.32	18425.8
1445.39	18439.5
1446.46	18448.9
1447.53	18437.6
1448.59	18413.2
1449.66	18407.6
1450.73	18402.8
1451.8	18399.1
1452.86	18396.2
1453.93	18394.2
1455	18393.1
1456.06	18392.5
1457.13	18393.3
1458.2	18391.4
1459.26	18387.3
1460.33	18381.9
1461.39	18370.4
1462.46	18362.2
1463.52	18355.9
1464.59	18348.8
1465.65	18349.3
1466.72	18361.5
1467.78	18366.9
1468.85	18366.9
1469.91	18337.2
1470.98	18301.6
1472.04	18284.5
1473.1	18281
1474.17	18315
1475.23	18299.6
1476.3	18290.3
1477.36	18284.9
1478.42	18282.9
1479.48	18279.1
1480.55	18283.8
1481.61	18287.8
1482.67	18292
1483.73	18295.8
1484.8	18299.9
1485.86	18300.8
1486.92	18297
1487.98	18290.7
1489.04	18276.3
1490.1	18254.6
1491.17	18237.1
1492.23	18214.8
1493.29	18194.4
1494.35	18183
1495.41	18176.6
1496.47	18174.8
1497.53	18177
1498.59	18154.1
1499.65	18136.5
1500.71	18122
1501.77	18112.3
1502.83	18102.1
1503.88	18105.1
1504.94	18110.6
1506	18115
1507.06	18118.7
1508.12	18112.8
1509.18	18097.3
1510.23	18088.5
1511.29	18089.2
1512.35	18082.2
1513.41	18067.7
1514.47	18052.9
1515.52	18033.9
1516.58	18010.4
1517.64	17987
1518.69	17964.1
1519.75	17945.3
1520.81	17936.4
1521.86	17926.2
1522.92	17918.2
1523.97	17913.7
1525.03	17911.1
1526.08	17911.5
1527.14	17913.7
1528.2	17916.9
1529.25	17921.7
1530.31	17906.7
1531.36	17893.5
1532.42	17875.8
1533.47	17858.9
1534.52	17843.9
1535.58	17830.8
1536.63	17823.4
1537.69	17810.4
1538.74	17798.2
1539.79	17785
1540.84	17776.5
1541.9	17770.6
1542.95	17786.9
1544	17810
1545.06	17824.6
1546.11	17838.7
1547.16	17838.5
1548.21	17830
1549.27	17813.7
1550.32	17790.4
1551.37	17764.7
1552.42	17748.3
1553.47	17757.1
1554.52	17768.3
1555.57	17777.4
1556.62	17782.1
1557.67	17784.8
1558.72	17786.4
1559.77	17786.2
1560.82	17784.2
1561.87	17780.6
1562.92	17776.1
1563.97	17772.2
1565.02	17773.4
1566.07	17769
1567.12	17755
1568.17	17741
1569.22	17729.8
1570.27	17720.7
1571.32	17714.3
1572.36	17709.7
1573.41	17707.1
1574.46	17706.4
1575.51	17707.9
1576.56	17710.8
1577.6	17714
1578.65	17715.6
1579.7	17721
1580.74	17723.7
1581.79	17721.6
1582.84	17710.3
1583.88	17681.3
1584.93	17661.8
1585.98	17667.2
1587.02	17662.3
1588.07	17651.3
1589.11	17638
1590.16	17619.4
1591.2	17599
1592.25	17581.4
1593.29	17563.1
1594.34	17544.9
1595.38	17527.3
1596.43	17532.7
1597.47	17548
1598.52	17551.4
1599.56	17548.7
1600.6	17531.7
1601.65	17498.3
1602.69	17438.7
1603.73	17455.6
1604.78	17486.1
1605.82	17514.9
1606.86	17508
1607.91	17487.8
1608.95	17457.6
1609.99	17428
1611.03	17398.1
1612.08	17369.3
1613.12	17344
1614.16	17338.2
1615.2	17327
1616.24	17338.9
1617.28	17339.4
1618.32	17330.9
1619.36	17309.7
1620.41	17280
1621.45	17266.5
1622.49	17250.6
1623.53	17234.7
1624.57	17220
1625.61	17209.6
1626.65	17201.4
1627.69	17183.2
1628.73	17168.2
1629.76	17139.5
1630.8	17122.9
1631.84	17116.2
1632.88	17119.8
1633.92	17131.3
1634.96	17128
1636	17121.1
1637.03	17112.6
1638.07	17092.2
1639.11	17062.8
1640.15	17043.1
1641.19	17026
1642.22	17012.6
1643.26	17005.3
1644.3	16999
1645.33	16978
1646.37	16959.3
1647.41	16928.4
1648.44	16916.3
1649.48	16914.5
1650.52	16920.8
1651.55	16937.2
1652.59	16944.1
1653.62	16936.1
1654.66	16918.1
1655.69	16896.8
1656.73	16882.5
1657.76	16872.2
1658.8	16869.1
1659.83	16858.1
1660.87	16846.6
1661.9	16835.3
1662.93	16828.1
1663.97	16821.8
1665	16822.4
1666.04	16823.2
1667.07	16824.7
1668.1	16826.3
1669.14	16826.1
1670.17	16824.5
1671.2	16821.6
1672.23	16817.8
1673.27	16811
1674.3	16801.1
1675.33	16788.3
1676.36	16773.8
1677.39	16759.5
1678.43	16746.2
1679.46	16733.5
1680.49	16726.5
1681.52	16718.7
1682.55	16712.4
1683.58	16707
1684.61	16702.6
1685.64	16697.9
1686.67	16696.8
1687.7	16697.7
1688.73	16699.8
1689.76	16702.5
1690.79	16703.7
1691.82	16690
1692.85	16677.1
1693.88	16660.7
1694.91	16643
1695.94	16620.3
1696.97	16617.4
1698	16611.4
1699.02	16605.8
1700.05	16612.8
1701.08	16603.6
1702.11	16579.3
1703.14	16562.4
1704.16	16537.5
1705.19	16520.8
1706.22	16515
1707.25	16515.8
1708.27	16502
1709.3	16486.8
1710.33	16470.9
1711.35	16447.5
1712.38	16420.4
1713.41	16391.3
1714.43	16362.9
1715.46	16362.6
1716.48	16365.6
1717.51	16377
1718.53	16388.2
1719.56	16397.3
1720.58	16404.6
1721.61	16401.1
1722.63	16391.9
1723.66	16378.1
1724.68	16358.9
1725.71	16332.7
1726.73	16302.8
1727.75	16270.7
1728.78	16245.1
1729.8	16220.9
1730.83	16206
1731.85	16195.1
1732.87	16197.2
1733.89	16195.7
1734.92	16198.5
1735.94	16189.7
1736.96	16173.6
1737.98	16158.1
1739.01	16160.3
1740.03	16164.6
1741.05	16168.6
1742.07	16163.7
1743.09	16154.1
1744.12	16137.9
1745.14	16117.5
1746.16	16092.8
1747.18	16063.8
1748.2	16039.4
1749.22	16032.8
1750.24	16027.8
1751.26	16018.9
1752.28	16009.8
1753.3	16001.4
1754.32	15992.8
1755.34	15983.9
1756.36	15975.4
1757.38	15967.3
1758.4	15959.6
1759.42	15952.7
1760.44	15946.8
1761.45	15941.8
1762.47	15935.2
1763.49	15927.6
1764.51	15918.9
1765.53	15909.4
1766.55	15896.8
1767.56	15880.3
1768.58	15861.6
1769.6	15843
1770.61	15829.4
1771.63	15818.4
1772.65	15819.2
1773.67	15832.5
1774.68	15838.3
1775.7	15846
1776.72	15840.9
1777.73	15822.3
1778.75	15790.4
1779.76	15766.2
1780.78	15750.5
1781.79	15743.5
1782.81	15747.2
1783.83	15730.1
1784.84	15715.8
1785.85	15704.4
1786.87	15696.8
1787.88	15693.5
1788.9	15694.4
1789.91	15702.1
1790.93	15713.6
1791.94	15707.8
1792.95	15691.3
1793.97	15666.9
1794.98	15637.8
1796	15616.5
1797.01	15593.4
1798.02	15575.2
1799.03	15565.7
1800.05	15558.7
1801.06	15553.5
1802.07	15548.8
1803.08	15544.1
1804.1	15537.7
1805.11	15519.8
1806.12	15506
1807.13	15491.8
1808.14	15479.3
1809.15	15469.1
1810.17	15462
1811.18	15437.7
1812.19	15415.7
1813.2	15387.7
1814.21	15367.1
1815.22	15383.2
1816.23	15413.2
1817.24	15419.4
1818.25	15301
1819.26	15280.9
1820.27	15296.8
1821.28	15311.7
1822.29	15315.3
1823.3	15314.6
1824.3	15309.7
1825.31	15298.4
1826.32	15282.3
1827.33	15261.1
1828.34	15235.4
1829.35	15205.1
1830.35	15180.9
1831.36	15174.5
1832.37	15171.7
1833.38	15161
1834.38	15148.5
1835.39	15131
1836.4	15114.7
1837.41	15098
1838.41	15080.6
1839.42	15062.3
1840.43	15043.2
1841.43	15023.8
1842.44	15007.7
1843.44	15039.5
1844.45	15050.6
1845.46	15024.6
1846.46	14996.2
1847.47	14968.6
1848.47	14948.2
1849.48	14934.1
1850.48	14927.8
1851.49	14953.7
1852.49	14955.4
1853.49	14950.2
1854.5	14938
1855.5	14920.5
1856.51	14898.9
1857.51	14874.7
1858.51	14863.6
1859.52	14871.8
1860.52	14882.9
1861.52	14895.3
1862.53	14909.5
1863.53	14921.1
1864.53	14927
1865.54	14896.1
1866.54	14854.1
1867.54	14817.2
1868.54	14788.1
1869.54	14765.9
1870.55	14762.1
1871.55	14731.9
1872.55	14705.4
1873.55	14682.3
1874.55	14662.1
1875.55	14644.2
1876.55	14642.5
1877.55	14647.1
1878.55	14645.7
1879.55	14647.5
1880.56	14643.6
1881.55	14634
1882.56	14618.7
1883.55	14597.6
1884.55	14570.3
1885.55	14536.4
1886.55	14508.8
1887.55	14503.5
1888.55	14515.4
1889.55	14530.2
1890.55	14546.2
1891.55	14535.5
1892.55	14513.1
1893.54	14508.1
1894.54	14502.3
1895.54	14492.1
1896.54	14486.3
1897.54	14472.5
1898.53	14458.6
1899.53	14443.4
1900.53	14428
1901.52	14413.7
1902.52	14401.3
1903.52	14407
1904.51	14412.1
1905.51	14379.4
1906.51	14366.9
1907.5	14358
1908.5	14350.7
1909.49	14345.3
1910.49	14340.5
1911.49	14327.7
1912.48	14307.1
1913.48	14283
1914.47	14261.8
1915.46	14238.9
1916.46	14224.6
1917.45	14218.2
1918.45	14211.9
1919.44	14208.1
1920.44	14205.2
1921.43	14191.5
1922.43	14170.7
1923.42	14154.7
1924.41	14139.5
1925.41	14123.8
1926.4	14112.1
1927.39	14102.9
1928.38	14096.1
1929.38	14091.1
1930.37	14087
1931.36	14083.3
1932.35	14069.9
1933.35	14058.6
1934.34	14031.9
1935.33	14002.2
1936.32	13978.6
1937.31	13959.9
1938.3	13945.2
1939.29	13934.7
1940.29	13930
1941.28	13929.3
1942.27	13933.3
1943.26	13939.4
1944.25	13919.1
1945.24	13901.6
1946.23	13876.6
1947.22	13853.2
1948.21	13833.8
1949.2	13812.9
1950.19	13791.5
1951.18	13791.5
1952.17	13793.7
1953.16	13788.8
1954.14	13771.4
1955.13	13750
1956.12	13721.5
1957.11	13698.8
1958.1	13679.2
1959.09	13662.7
1960.07	13648.9
1961.06	13638
1962.05	13629.5
1963.04	13623.6
1964.02	13620
1965.01	13618.7
1966	13620
1966.99	13624.7
1967.97	13631.2
1968.96	13635.9
1969.95	13628.6
1970.93	13612.1
1971.92	13587.4
1972.9	13558.5
1973.89	13533.6
1974.88	13517.3
1975.86	13505.8
1976.85	13497.2
1977.83	13492.1
1978.82	13488.8
1979.8	13486.2
1980.79	13482.5
1981.77	13477.7
1982.76	13467.5
1983.74	13452.7
1984.72	13430.7
1985.71	13390.8
1986.69	13356.9
1987.67	13367.9
1988.66	13355.6
1989.64	13346.9
1990.62	13337.2
1991.61	13326.3
1992.59	13313.5
1993.57	13295.1
1994.56	13274.7
1995.54	13248.5
1996.52	13226.3
1997.5	13228.2
1998.49	13225.9
1999.47	13225.3
2000.45	13225.9
2001.43	13229.2
2002.41	13231
2003.39	13217.7
2004.38	13199.5
2005.36	13177.1
2006.34	13155.4
2007.32	13132.5
2008.3	13112.6
2009.28	13105.3
2010.26	13103.1
2011.24	13102.5
2012.22	13102.6
2013.2	13102.4
2014.18	13099.7
2015.16	13091.4
2016.14	13068.9
2017.12	13045.1
2018.1	13027.6
2019.07	13013.9
2020.05	13005.4
2021.03	13002.7
2022.01	13007.2
2022.99	13003.5
2023.97	12992.2
2024.95	12965.5
2025.92	12942.2
2026.9	12923.7
2027.88	12907.8
2028.86	12892.5
2029.83	12878.1
2030.81	12866.1
2031.79	12854.9
2032.76	12845.2
2033.74	12836.3
2034.72	12827.8
2035.69	12817.7
2036.67	12797.9
2037.65	12778.9
2038.62	12759.8
2039.6	12740.8
2040.57	12722.2
2041.55	12703.8
2042.52	12686
2043.5	12668.5
2044.47	12661.8
2045.45	12669.5
2046.42	12676
2047.4	12679
2048.37	12686.1
2049.35	12678.3
2050.32	12658.7
2051.29	12633.1
2052.27	12603.8
2053.24	12575.2
2054.21	12547.4
2055.19	12536.1
2056.16	12533.8
2057.13	12565.5
2058.11	12571.9
2059.08	12531.1
2060.05	12460.3
2061.02	12477.6
2062	12477.5
2062.97	12479.7
2063.94	12466.9
2064.91	12450.5
2065.89	12435.6
2066.86	12419.9
2067.83	12393.2
2068.8	12378.7
2069.77	12374.7
2070.74	12368.6
2071.71	12361.3
2072.68	12354
2073.65	12346.4
2074.62	12341
2075.59	12335.1
2076.56	12329.3
2077.53	12320.8
2078.5	12288.7
2079.47	12262.9
2080.44	12240.6
2081.41	12223.3
2082.38	12210.5
2083.35	12203
2084.32	12201.6
2085.29	12206.5
2086.26	12196.5
2087.23	12183.8
2088.19	12170
2089.16	12145.4
2090.13	12119.7
2091.1	12095.2
2092.07	12072.3
2093.03	12052.3
2094	12034.5
2094.97	12033.8
2095.94	12030.6
2096.9	12037
2097.87	12037.6
2098.84	12033.8
2099.8	12024
2100.77	12010.4
2101.74	11994.8
2102.7	11976.3
2103.67	11965.3
2104.63	11953.9
2105.6	11943.2
2106.56	11932.5
2107.53	11921.3
2108.49	11909
2109.46	11894.5
2110.42	11879
2111.39	11862.2
2112.35	11847.3
2113.32	11835.7
2114.28	11824.8
2115.25	11816.3
2116.21	11810.7
2117.17	11807.6
2118.14	11806.6
2119.1	11808.3
2120.07	11789.9
2121.03	11768.5
2121.99	11736
2122.96	11700.5
2123.92	11737.1
2124.88	11752.7
2125.84	11758.2
2126.81	11672.7
2127.77	11662.5
2128.73	11642.6
2129.69	11628.2
2130.65	11613.9
2131.62	11599.4
2132.58	11585
2133.54	11578.5
2134.5	11577.7
2135.46	11583.1
2136.42	11586.1
2137.38	11591
2138.34	11600.6
2139.3	11598.9
2140.26	11585.3
2141.22	11560.4
2142.18	11518.5
2143.14	11481
2144.1	11447
2145.06	11411.5
2146.02	11392.6
2146.98	11403.4
2147.94	11407.2
2148.9	11418.5
2149.86	11430.2
2150.82	11425.1
2151.78	11411.7
2152.74	11388.9
2153.69	11333.1
2154.65	11328.9
2155.61	11332.8
2156.57	11342.7
2157.53	11330.6
2158.48	11311.2
2159.44	11282.8
2160.4	11257.6
2161.36	11240.4
2162.31	11218.8
2163.27	11338.6
2164.23	11198
2165.18	11177.5
2166.14	11150.7
2167.1	11137
2168.05	11163.4
2169.01	11168.6
2169.96	11138.9
2170.92	11118.3
2171.88	11098.1
2172.83	11077.3
2173.79	11055.6
2174.74	11030.1
2175.7	11005
2176.65	10979.7
2177.6	10954.4
2178.56	10928.7
2179.51	10902.9
2180.47	10881.4
2181.42	10863.9
2182.38	10858.1
2183.33	10855.4
2184.28	10859.4
2185.24	10867.8
2186.19	10867.2
2187.14	10860.4
2188.1	10847.8
2189.05	10826.2
2190	10813
2190.96	10799.8
2191.91	10789.9
2192.86	10782.1
2193.81	10769
2194.76	10752.3
2195.72	10733.7
2196.67	10714
2197.62	10691.8
2198.57	10673.4
2199.52	10662.7
2200.47	10662.2
2201.43	10665.8
2202.38	10665.1
2203.33	10656.7
2204.28	10648
2205.23	10636.5
2206.18	10621.7
2207.13	10604.2
2208.08	10583.6
2209.03	10569.4
2209.98	10572.7
2210.93	10573.1
2211.88	10568.7
2212.83	10563.5
2213.78	10556.3
2214.73	10545.7
2215.67	10532.2
2216.62	10516.4
2217.57	10498.5
2218.52	10480.2
2219.47	10474.4
2220.42	10468.6
2221.37	10464.1
2222.31	10464.6
2223.26	10469.8
2224.21	10474.8
2225.16	10473.8
2226.1	10453.9
2227.05	10428.5
2228	10404.9
2228.94	10370.9
2229.89	10345.6
2230.84	10331.9
2231.78	10340.6
2232.73	10358.9
2233.68	10375.3
2234.62	10374.6
2235.57	10374.3
2236.51	10364.8
2237.46	10353.3
2238.41	10342.1
2239.35	10334.4
2240.3	10324.6
2241.24	10315.2
2242.19	10305.6
2243.13	10296.5
2244.07	10289.5
2245.02	10284.6
2245.96	10285
2246.91	10286
2247.85	10288.3
2248.8	10291.1
2249.74	10294.1
2250.68	10297.4
2251.63	10284.2
2252.57	10271
2253.51	10258.7
2254.46	10246.4
2255.4	10233.9
2256.34	10220.5
2257.28	10210.3
2258.23	10204.5
2259.17	10196.4
2260.11	10189.2
2261.05	10182
2262	10176
2262.94	10171.8
2263.88	10169.7
2264.82	10172.2
2265.76	10174.1
2266.7	10174.2
2267.64	10170
2268.58	10161.1
2269.53	10151.9
2270.47	10141.5
2271.41	10132.7
2272.35	10125.3
2273.29	10120.3
2274.23	10117
2275.17	10114.3
2276.11	10107.3
2277.05	10105.2
2277.99	10103.6
2278.93	10114.6
2279.86	10118.7
2280.8	10116.1
2281.74	10107.4
2282.68	10093.5
2283.62	10090.2
2284.56	10083.6
2285.5	10083.2
2286.44	10074.9
2287.37	10064.5
2288.31	10056.6
2289.25	10050.7
2290.19	10046.9
2291.12	10044.2
2292.06	10041.2
2293	10048.6
2293.94	10051.6
2294.87	10047.9
2295.81	10042.4
2296.75	10036.6
2297.68	10028.8
2298.62	10019.6
2299.55	10007.9
2300.49	9994.1
2301.43	9978.39
2302.36	9948.41
2303.3	9944.43
2304.23	9935.35
2305.17	9929.54
2306.1	9923.51
2307.04	9916.51
2307.98	9911.04
2308.91	9906.42
2309.84	9903.21
2310.78	9901.7
2311.71	9901.41
2312.65	9908.91
2313.58	9909.62
2314.52	9900.37
2315.45	9881.79
2316.38	9857.99
2317.32	9836.01
2317.72	9826.27
2318.66	9814.94
2319.6	9812.81
2320.54	9812.76
2321.48	9812.77
2322.41	9810.97
2323.35	9803.88
2324.29	9791.46
2325.23	9773.46
2326.16	9754.25
2327.1	9746.88
2328.04	9748.88
2328.97	9748.09
2329.91	9742.62
2330.85	9735.11
2331.78	9727.83
2332.72	9713.58
2333.66	9696.7
2334.59	9680.84
2335.53	9671.21
2336.46	9670.13
2337.4	9662.46
2338.33	9649.86
2339.27	9640.47
2340.2	9632.75
2341.14	9625.13
2342.07	9617.75
2343.01	9610.23
2343.94	9603.63
2344.88	9597.06
2345.81	9589.05
2346.75	9578.63
2347.68	9564.71
2348.61	9557.46
2349.55	9558.13
2350.48	9550.96
2351.41	9542.77
2352.35	9529.5
2353.28	9518.46
2354.21	9504.12
2355.15	9491.6
2356.08	9482.57
2357.01	9479.46
2357.94	9492.31
2358.88	9507.43
2359.81	9512.79
2360.74	9515.18
2361.67	9509.36
2362.6	9494.33
2363.54	9484.43
2364.47	9473.25
2365.4	9462.32
2366.33	9453.39
2367.26	9445.61
2368.19	9439.09
2369.12	9433.67
2370.05	9429.99
2370.98	9427.62
2371.91	9426.57
2372.84	9426.5
2373.77	9425.29
2374.7	9420.06
2375.63	9391.88
2376.56	9357.93
2377.49	9334.29
2378.42	9325.24
2379.35	9326.79
2380.28	9333.1
2381.21	9340.48
2382.14	9346.05
2383.07	9349.94
2384	9344.16
2384.92	9338.16
2385.85	9326.86
2386.78	9314.34
2387.71	9299.16
2388.64	9284.71
2389.56	9275.71
2390.49	9267.66
2391.42	9265.84
2392.35	9265.15
2393.27	9266.81
2394.2	9267.53
2395.13	9266.6
2396.05	9257.51
2396.98	9248.44
2397.91	9242.2
2398.83	9234.84
2399.76	9226.47
2400.69	9217.56
2401.61	9208.41
2402.54	9199.46
2403.46	9190.28
2404.39	9184.46
2405.31	9195.14
2406.24	9200.17
2407.17	9199.36
2408.09	9191.02
2409.01	9175.52
2409.94	9153.72
2410.86	9133.02
2411.79	9122.33
2412.71	9115.07
2413.64	9110.39
2414.56	9108.03
2415.49	9106.49
2416.41	9103.26
2417.33	9094.48
2418.26	9076.38
2419.18	9057.05
2420.1	9041.35
2421.03	9028.47
2421.95	9013.02
2422.87	9003.47
2423.79	8999.48
2424.72	8996.79
2425.64	8993.24
2426.56	8986.37
2427.48	8977.8
2428.41	8963
2429.33	8949.51
2430.25	8936.23
2431.17	8922.48
2432.09	8918.36
2433.01	8912.4
2433.93	8910.76
2434.86	8900.99
2435.78	8880.83
2436.7	8860.04
2437.62	8837.63
2438.54	8814.33
2439.46	8804.87
2440.38	8803.86
2441.3	8811.79
2442.22	8824.74
2443.14	8832.71
2444.06	8830.12
2444.98	8830.75
2445.9	8821.25
2446.82	8796.92
2447.73	8775.29
2448.65	8759.16
2449.57	8745.26
2450.49	8732.73
2451.41	8722.08
2452.33	8713.3
2453.25	8706.31
2454.17	8701.16
2455.08	8697.92
2456	8696.66
2456.92	8697.59
2457.84	8700.07
2458.75	8701.95
2459.67	8701.24
2460.59	8682.63
2461.51	8651.42
2462.42	8624.8
2463.34	8602.96
2464.26	8585.84
2465.17	8586.75
2466.09	8585.67
2467	8589.3
2467.92	8585.71
2468.84	8585.54
2469.75	8573.44
2470.67	8552.61
2471.58	8538.5
2472.5	8531.81
2473.42	8535.17
2474.33	8534.68
2475.25	8516.13
2476.16	8507.13
2477.08	8496.76
2477.99	8492.81
2478.9	8493.09
2479.82	8498.67
2480.73	8498.12
2481.65	8497.51
2482.56	8497.68
2483.47	8496.34
2484.39	8494.01
2485.3	8490.36
2486.22	8484.49
2487.13	8475.18
2488.04	8437.18
2488.96	8426.13
2489.87	8416.51
2490.78	8412.19
2491.69	8410.01
2492.61	8409.59
2493.52	8409.62
2494.43	8407.32
2495.34	8404.85
2496.25	8402.13
2497.17	8399.97
2498.08	8397.65
2498.99	8397.94
2499.9	8401.53
2500.81	8405.63
2501.72	8405.39
2502.63	8405.18
2503.55	8389.61
2504.46	8375.63
2505.37	8365.69
2506.28	8353.08
2507.19	8344.28
2508.1	8346.52
2509.01	8347.12
2509.92	8347.49
2510.83	8345.79
2511.74	8334.48
2512.65	8313.94
2513.56	8292.81
2514.47	8273.73
2515.37	8249.51
2516.28	8249.13
2517.19	8262.87
2518.1	8274.15
2519.01	8279.05
2519.92	8274.93
2520.83	8263.37
2521.73	8252.39
2522.64	8242.19
2523.55	8232.79
2524.46	8224.55
2525.37	8233.79
2526.27	8227.8
2527.18	8218.18
2528.09	8205.13
2529	8191.51
2529.9	8183.34
2530.81	8172.68
2531.72	8164.18
2532.62	8167.76
2533.53	8175.57
2534.44	8175.8
2535.34	8171.58
2536.25	8166.64
2537.15	8152.5
2538.06	8144.29
2538.96	8139.19
2539.87	8132.16
2540.78	8126.21
2541.68	8117.5
2542.59	8106.79
2543.49	8096.72
2544.4	8087.96
2545.3	8079.67
2546.21	8072.97
2547.11	8067.54
2548.01	8063.35
2548.92	8060.16
2549.82	8058.52
2550.73	8057.18
2551.63	8051.65
2552.53	8041.98
2553.44	8020.84
2554.34	7996.71
2555.24	7975.15
2556.15	7962.04
2557.05	7942.97
2557.95	7938.82
2558.86	7940.85
2559.76	7939.09
2560.66	7932.89
2561.56	7922.47
2562.46	7909.4
2563.37	7896.99
2564.27	7882.64
2565.17	7864.86
2566.07	7847.77
2566.97	7839.17
2567.88	7830.81
2568.78	7832.7
2569.68	7840.5
2570.58	7845.4
2571.48	7849.06
2572.38	7859.6
2573.28	7862.2
2574.18	7849.64
2575.08	7825.05
2575.98	7799.15
2576.88	7775.14
2577.78	7764.27
2578.68	7750.22
2579.58	7756.27
2580.48	7762.52
2581.38	7765.8
2582.28	7763.33
2583.18	7755.12
2584.08	7740.4
2584.98	7729.44
2585.88	7722.26
2586.77	7714.22
2587.67	7701.24
2588.57	7685.5
2589.47	7666.77
2590.37	7645.47
2591.27	7627.28
2592.16	7618.68
2593.06	7612.17
2593.96	7622.17
2594.86	7632.27
2595.75	7640.21
2596.65	7635.73
2597.55	7625.98
2598.45	7612.6
2599.34	7595.11
2600.24	7575.16
2601.13	7568.85
2602.03	7566.85
2602.93	7567.88
2603.82	7564.01
2604.72	7560.28
2605.62	7553.69
2606.51	7552.2
2607.41	7553.06
2608.3	7544.48
2609.2	7520.3
2610.09	7465.09
2610.99	7536.13
2611.88	7513.47
2612.78	7499.74
2613.67	7486.05
2614.57	7473.46
2615.46	7461.54
2616.36	7451.38
2617.25	7441.05
2618.14	7427.53
2619.04	7438.2
2619.93	7452.46
2620.83	7458.94
2621.72	7462.81
2622.61	7464.39
2623.5	7460
2624.4	7452.07
2625.29	7438.96
2626.18	7421.94
2627.08	7401.42
2627.97	7379.01
2628.86	7370.35
2629.75	7363.84
2630.65	7350.13
2631.54	7336.91
2632.43	7325.54
2633.32	7316.15
2634.21	7309.42
2635.11	7304.56
2636	7304.43
2636.89	7305.84
2637.78	7305.59
2638.67	7302.8
2639.56	7295.84
2640.45	7286.33
2641.34	7274.13
2642.23	7258.89
2643.12	7240.17
2644.01	7218.2
2644.9	7191.73
2645.79	7162.56
2646.68	7132
2647.57	7120.83
2648.46	7118.27
2649.35	7119.04
2650.24	7119.78
2651.13	7120.52
2652.02	7115.66
2652.91	7111.37
2653.8	7104.77
2654.69	7096.86
2655.58	7086.88
2656.46	7077.3
2657.35	7071.03
2658.24	7067.41
2659.13	7067.44
2660.02	7066.84
2660.9	7067.35
2661.79	7068.54
2662.68	7071.08
2663.57	7070.14
2664.45	7066.52
2665.34	7059.71
2666.23	7050.51
2667.11	7042.08
2668	7031.93
2668.89	7020.43
2669.77	7009.52
2670.66	6998.78
2671.55	6989.12
2672.43	6979.52
2673.32	6970.14
2674.21	6960.95
2675.09	6952.28
2675.98	6943.47
2676.86	6933.76
2677.75	6923.03
2678.63	6914.09
2679.52	6910.11
2680.4	6910.96
2681.29	6913.81
2682.17	6910.86
2683.06	6903.71
2683.94	6891.67
2684.82	6871.87
2685.71	6852.44
2686.59	6835.01
2687.48	6820.17
2688.36	6806.14
2689.24	6793.86
2690.13	6783.33
2691.01	6774.6
2691.89	6768.07
2692.78	6763.48
2693.66	6760.23
2694.54	6757.45
2695.43	6748.9
2696.31	6748.9
2697.19	6725.6
2698.07	6701.22
2698.96	6682.75
2699.84	6671.71
2700.72	6676.86
2701.6	6735.04
2702.48	6752.86
2703.36	6713.17
2704.25	6687.39
2705.13	6648
2706.01	6664.27
2706.89	6656.75
2707.77	6651.19
2708.65	6648.02
2709.53	6646.68
2710.41	6646.02
2711.29	6641.58
2712.17	6636.33
2713.05	6628.7
2713.93	6621.55
2714.81	6605.42
2715.69	6593.44
2716.57	6586.48
2717.45	6587.08
2718.33	6586.09
2719.21	6588.79
2720.09	6597.83
2720.97	6597.71
2721.85	6588.75
2722.73	6572.45
2723.61	6559.14
2724.48	6549.77
2725.36	6566.71
2726.24	6561.56
2727.12	6550.06
2728	6536.88
2728.88	6528.25
2729.75	6521.42
2730.63	6515.05
2731.51	6509.1
2732.39	6503.55
2733.26	6498.17
2734.14	6492.92
2735.02	6487.31
2735.89	6480.99
2736.77	6475.24
2737.65	6469.9
2738.52	6465.69
2739.4	6462.36
2740.28	6460.94
2741.15	6456.6
2742.03	6447.74
2742.9	6440.6
2743.78	6429.09
2744.65	6418.48
2745.53	6414.19
2746.41	6410.33
2747.28	6404.08
2748.16	6410.17
2749.03	6413.93
2749.91	6415.87
2750.78	6407.98
2751.66	6391.31
2752.53	6366.76
2753.4	6355.91
2754.28	6349.49
2755.15	6342.86
2756.02	6345.2
2756.9	6351.63
2757.77	6351.84
2758.65	6341.55
2759.52	6323.1
2760.39	6312.93
2761.27	6303.18
2762.14	6304.07
2763.01	6315.56
2763.88	6315.02
2764.76	6319.7
2765.63	6277.17
2766.5	6267.87
2767.37	6271.1
2768.25	6283.03
2769.12	6283.88
2769.99	6279.15
2770.86	6272.02
2771.73	6262.72
2772.61	6251.94
2773.48	6240.04
2774.35	6228.1
2775.22	6214.17
2776.09	6199.5
2776.96	6184.31
2777.83	6169.6
2778.7	6164.13
2779.57	6158.26
2780.44	6154.73
2781.31	6152.97
2782.18	6153.29
2783.05	6155.28
2783.92	6154.67
2784.79	6155.77
2785.66	6147.61
2786.53	6141.35
2787.4	6135.82
2788.27	6130.41
2789.14	6124.3
2790.01	6118.51
2790.88	6111.77
2791.75	6104.25
2792.62	6095.78
2793.48	6086.87
2794.35	6077.2
2795.22	6067.24
2796.09	6057.08
2796.96	6047.96
2797.82	6052.33
2798.69	6055.33
2799.56	6052.4
2800.43	6046.67
2801.29	5990.01
2802.16	6009.92
2803.03	6024.03
2803.9	6034.08
2804.76	6039.5
2805.63	6038.31
2806.5	6032.79
2807.36	6020.28
2808.23	6003.66
2809.09	5983.21
2809.96	5960.54
2810.83	5957.92
2811.69	5962.49
2812.56	5964.78
2813.42	5968.57
2814.29	5962.46
2815.15	5952.84
2816.02	5941.23
2816.88	5929.99
2817.75	5920.77
2818.61	5916.31
2819.48	5911.46
2820.34	5904.89
2821.21	5897.28
2822.07	5888.12
2822.94	5878.3
2823.8	5872.66
2824.66	5877.91
2825.53	5882.79
2826.39	5889.91
2827.26	5889.79
2828.12	5884
2828.98	5838.16
2829.85	5812.22
2830.71	5818.97
2831.57	5833.54
2832.43	5826.35
2833.3	5824.39
2834.16	5814.3
2835.02	5800.78
2835.88	5788.03
2836.75	5776.08
2837.61	5768.07
2838.47	5764.89
2839.33	5769.58
2840.19	5780.08
2841.06	5784.97
2841.92	5794.05
2842.78	5792.17
2843.64	5787.45
2844.5	5780.79
2845.36	5772.92
2846.22	5764.12
2847.08	5754.29
2847.94	5745.66
2848.81	5737.4
2849.67	5728.52
2850.53	5719.13
2851.39	5709.54
2852.25	5699.96
2853.11	5690.84
2853.97	5684.61
2854.82	5677.53
2855.68	5680.27
2856.54	5688.14
2857.4	5693.14
2858.26	5697.19
2859.12	5699.51
2859.98	5695.44
2860.84	5690.48
2861.7	5679.7
2862.56	5667.11
2863.41	5657.2
2864.27	5650.69
2865.13	5652.21
2865.99	5649.38
2866.85	5647.8
2867.7	5645.52
2868.56	5642.87
2869.42	5639.4
2870.28	5635.15
2871.13	5630.05
2871.99	5624.07
2872.85	5616.23
2873.7	5607.84
2874.56	5599.05
2875.42	5591.04
2876.27	5584.2
2877.13	5578.67
2877.99	5574.8
2878.84	5571.64
2879.7	5569.39
2880.56	5568.21
2881.41	5567.22
2882.27	5564.83
2883.12	5557.03
2883.98	5537.9
2884.83	5522.85
2885.69	5507.32
2886.54	5491.9
2887.4	5484.09
2888.25	5481.48
2889.11	5487.24
2889.96	5489.88
2890.82	5490.63
2891.67	5480.12
2892.52	5469.88
2893.38	5459.51
2894.23	5450.64
2895.09	5440.72
2895.94	5431.59
2896.79	5422.84
2897.65	5414.78
2898.5	5407.58
2899.35	5401.75
2900.21	5399.49
2901.06	5406.87
2901.91	5416.81
2902.76	5418.75
2903.62	5409.24
2904.47	5375.66
2905.32	5308.35
2906.17	5379.29
2907.03	5365.57
2907.88	5360.06
2908.73	5352.79
2909.58	5342.97
2910.43	5337.15
2911.28	5333.95
2912.14	5330.93
2912.99	5328.7
2913.84	5326.63
2914.69	5324.36
2915.54	5314.07
2916.39	5303.54
2917.24	5290.54
2918.09	5285.35
2918.94	5285.26
2919.79	5288.96
2920.64	5292.29
2921.49	5292.79
2922.34	5289.27
2923.19	5283.6
2924.04	5270.55
2924.89	5258.54
2925.74	5247.32
2926.59	5238.21
2927.44	5232.5
2928.29	5231.04
2929.14	5235.18
2929.98	5234.52
2930.83	5227.16
2931.68	5214.33
2932.53	5195.85
2933.38	5189.14
2934.23	5183.85
2935.07	5179.24
2935.92	5175.57
2936.77	5175.23
2937.62	5173.74
2938.47	5166.31
2939.31	5153.43
2940.16	5137.64
2941.01	5133.06
2941.85	5136.15
2942.7	5135.61
2943.55	5131.78
2944.39	5129.65
2945.24	5124.16
2946.09	5114.11
2946.93	5100.63
2947.78	5085.04
2948.63	5065.35
2949.47	5053.64
2950.32	5049.07
2951.16	5042.2
2952.01	5048.73
2952.85	5057.3
2953.7	5063.71
2954.55	5070.73
2955.39	5068.92
2956.24	5063.74
2957.08	5050.6
2957.92	5038.5
2958.77	5031.69
2959.61	5028
2960.46	5027.6
2961.3	5030.1
2962.15	5035.04
2962.99	5042.73
2963.83	5038.97
2964.68	5028.08
2965.52	5015.89
2966.37	5002.1
2967.21	4986.08
2968.05	4969.51
2968.9	4969.02
2969.74	4981.51
2970.58	4983.95
2971.42	4990.77
2972.27	4982.13
2973.11	4977.08
2973.95	4969.72
2974.79	4961.48
2975.64	4953.1
2976.48	4944.66
2977.32	4936.73
2978.16	4928.45
2979	4920.37
2979.85	4912.37
2980.69	4904.55
2981.53	4897.01
2982.37	4890.18
2983.21	4885.51
2984.05	4881.6
2984.89	4878.69
2985.73	4876.73
2986.57	4875.2
2987.41	4873.33
2988.25	4871.15
2989.1	4868.56
2989.94	4865.52
2990.77	4861.92
2991.62	4858.46
2992.45	4854.94
2993.29	4851.99
2994.13	4848.86
2994.97	4846.99
2995.81	4845.01
2996.65	4847.58
2997.49	4826.35
2998.33	4844.79
2999.17	4837.94
