200.833	18797.5
202.102	18882
203.371	18903
204.639	18925.7
205.907	18946.3
207.175	18963.3
208.442	18975.6
209.71	18985.2
210.977	18991.6
212.244	18994.5
213.511	18994.2
214.777	18991.5
216.042	18987.7
217.309	18989.5
218.575	19000.1
219.84	19043.1
221.106	19110.7
222.371	19169.2
223.635	19218.5
224.9	19257.3
226.165	19285.7
227.429	19274.6
228.694	19299.4
229.956	19335.7
231.22	19377.2
232.484	19442
233.747	19489.3
235.011	19531.5
236.272	19565
237.535	19578.7
238.798	19608.9
240.06	19636.5
241.321	19670.2
242.583	19720.6
243.845	19730.8
245.105	19748.1
246.367	19775.2
247.628	19806
248.888	19836.6
250.149	19864.1
251.409	19886.1
252.67	19896.6
253.928	19905.5
255.189	19915.1
256.447	19926.5
257.707	19938.6
258.966	19950.9
260.224	19964.1
261.483	19977.7
262.742	19992.2
263.999	20006.5
265.257	20018.2
266.514	20028.4
267.772	20038.9
269.028	20048.3
270.286	20053.7
271.543	20046.7
272.799	20088.8
274.056	20140
275.311	20175.5
276.568	20197.5
277.823	20202.6
279.079	20211.2
280.333	20250.8
281.589	20293.2
282.843	20339.3
284.099	20380.5
285.352	20407.9
286.607	20418.5
287.86	20421.7
289.114	20413.9
290.368	20413.5
291.621	20424.1
292.875	20442.3
294.127	20493.9
295.38	20515.6
296.632	20533.5
297.884	20546.4
299.137	20555.7
300.388	20564.5
301.641	20572
302.891	20577.8
304.142	20582.3
305.394	20585.7
306.644	20588
307.894	20590.7
309.146	20600.1
310.395	20620.5
311.645	20654.3
312.895	20700.2
314.144	20713.4
315.393	20723.8
316.642	20730.9
317.892	20732.3
319.14	20739.3
320.388	20754.8
321.637	20777.6
322.885	20799
324.132	20817
325.38	20827.3
326.628	20836.8
327.875	20851.1
329.122	20872.1
330.368	20894.9
331.614	20918.6
332.862	20941.6
334.108	20963.2
335.353	20982.7
336.599	21001.4
337.844	21019
339.089	21035.7
340.335	21051.3
341.58	21066.1
342.824	21081.4
344.068	21096.3
345.312	21110.2
346.556	21123.9
347.8	21136.5
349.043	21150.7
350.286	21170.4
351.53	21190.9
352.774	21208
354.016	21220.8
355.259	21230.7
356.501	21237.1
357.743	21240.7
358.985	21241.9
360.227	21240.2
361.468	21236.7
362.709	21232.6
363.95	21233.1
365.191	21235.1
366.432	21237
367.672	21237.8
368.912	21235.4
370.152	21231.4
371.392	21223.8
372.632	21214.5
373.871	21195
375.11	21191.2
376.348	21205
377.587	21224.1
378.825	21247.5
380.064	21273.7
381.302	21297.7
382.54	21322.9
383.778	21351.7
385.016	21382
386.253	21411.7
387.489	21438
388.726	21460.7
389.963	21480
391.199	21493.3
392.436	21506.6
393.672	21520.2
394.907	21533.3
396.142	21570.8
397.378	21588.7
398.614	21578.2
399.849	21565.7
401.082	21554
402.317	21537
403.552	21541
404.786	21551.9
406.019	21607.6
407.253	21674
408.487	21695
409.721	21711.4
410.953	21704.6
412.186	21654.7
413.419	21660.5
414.651	21666
415.883	21672.8
417.116	21680.3
418.347	21688.1
419.579	21695.2
420.811	21701.2
422.041	21705.4
423.272	21709.3
424.504	21700.7
425.733	21698.1
426.964	21707.3
428.194	21725.3
429.424	21740.8
430.654	21752.8
431.883	21762
433.113	21769
434.341	21773.5
435.571	21776
436.799	21775.5
438.028	21773.3
439.257	21769.5
440.484	21770.7
441.713	21781.2
442.94	21791.7
444.168	21804.9
445.394	21818.1
446.622	21828.9
447.848	21836.6
449.076	21838.9
450.301	21857.4
451.528	21877.8
452.754	21900.2
453.979	21905.9
455.205	21911
456.43	21916.3
457.656	21922.6
458.88	21930.5
460.106	21938.7
461.33	21946.6
462.554	21954.2
463.779	21960.1
465.002	21963.8
466.225	21963.9
467.45	21959.9
468.672	21955.3
469.895	21951
471.119	21947
472.341	21943.4
473.563	21939.3
474.786	21934.3
476.008	21928.5
477.229	21921.2
478.452	21911.1
479.673	21899.4
480.894	21886.7
482.115	21875.8
483.337	21869.2
484.557	21868.7
485.777	21874
486.997	21885.1
488.218	21896.5
489.438	21906.7
490.657	21894.4
491.876	21886.6
493.096	21881.6
494.315	21879.1
495.533	21879
496.752	21872.6
497.97	21867.8
499.188	21865.7
500.407	21866.8
501.625	21872
502.842	21880.6
504.059	21894.1
505.276	21909.9
506.493	21908.8
507.71	21920.1
508.926	21911.4
510.142	21906.7
511.358	21909.6
512.575	21916.9
513.791	21927.9
515.006	21942.5
516.222	21954.7
517.437	21973.8
518.651	21969.7
519.866	21971.4
521.081	21982.1
522.295	21998.3
523.509	22019.9
524.723	22045.3
525.937	22070.6
527.15	22092.5
528.363	22071
529.576	22070.4
530.789	22075.3
532.002	22110.6
533.215	22146.5
534.426	22123.4
535.638	22102.6
536.85	22083.7
538.061	22066.2
539.273	22044.9
540.484	22035.3
541.695	22043.9
542.906	22067.2
544.117	22092.1
545.327	22111.2
546.537	22124.8
547.747	22133.1
548.957	22136.4
550.167	22134.7
551.377	22127.4
552.585	22115.5
553.794	22098.4
555.003	22080.4
556.212	22075.6
557.421	22102.2
558.628	22135
559.836	22147.2
561.044	22155.2
562.252	22137.6
563.458	22096.8
564.666	22085.6
565.873	22079
567.08	22078.1
568.286	22095.6
569.493	22119.7
570.699	22140
571.904	22163.4
573.111	22175.3
574.317	22177.2
575.521	22169.5
576.727	22151.1
577.932	22128.1
579.136	22106.2
580.341	22090.2
581.544	22093.4
582.749	22096
583.954	22117.3
585.156	22142.6
586.361	22174.3
587.563	22206.5
588.767	22217.6
589.97	22219.4
591.172	22214.5
592.375	22200.8
593.577	22183.6
594.78	22153.8
595.981	22137.8
597.183	22138.3
598.384	22141.6
599.586	22147.1
600.786	22155.3
601.988	22169.3
603.188	22181.1
604.389	22182
605.589	22176
606.79	22161.5
607.989	22139.5
609.188	22109.6
610.389	22073.9
611.587	22060.5
612.787	22055.5
613.986	22045.7
615.184	22036.6
616.383	22018.2
617.581	21994.8
618.78	21970.1
619.977	21943.8
621.174	21945.7
622.373	21931.4
623.57	21954.6
624.766	21975.9
625.964	21989.1
627.16	21999.3
628.356	21981
629.554	21940
630.749	21898.9
631.945	21860
633.14	21822.1
634.337	21778.9
635.532	21761.5
636.726	21762
637.921	21785.4
639.117	21815.1
640.311	21833.7
641.505	21846.5
642.699	21848.5
643.892	21862.6
645.087	21807.4
646.28	21764.4
647.473	21729.3
648.666	21740.7
649.859	21758.6
651.051	21774.6
652.245	21787
653.437	21799.1
654.629	21811.3
655.821	21822.4
657.012	21832
658.204	21839.5
659.395	21844
660.586	21841.8
661.777	21840.7
662.967	21838.4
664.158	21837.1
665.349	21838.7
666.539	21842.4
667.729	21848.7
668.919	21859.6
670.109	21874.3
671.298	21893.3
672.487	21916.2
673.676	21939.7
674.865	21958.7
676.053	21957
677.242	21942.8
678.43	21930.7
679.616	21918.6
680.804	21919.2
681.992	21916.2
683.179	21915.8
684.366	21907.4
685.554	21898.5
686.74	21888.9
687.927	21875
689.114	21858.1
690.3	21844.6
691.486	21837.1
692.671	21844.9
693.856	21841.8
695.042	21832.8
696.227	21822.3
697.413	21807
698.598	21788.1
699.781	21765.3
700.966	21739.1
702.15	21708.7
703.334	21681.3
704.518	21675.8
705.701	21677.8
706.885	21687.2
708.068	21696.6
709.252	21680.9
710.433	21672.6
711.616	21666.5
712.799	21661.1
713.98	21659.4
715.163	21659.7
716.345	21664.3
717.527	21671.4
718.707	21680.4
719.889	21690.1
721.071	21690.4
722.25	21690.4
723.432	21693.9
724.611	21699.6
725.792	21712.2
726.972	21719.4
728.151	21725.2
729.332	21729.1
730.512	21732.3
731.69	21730.8
732.87	21718.6
734.048	21710
735.227	21706.9
736.405	21724.2
737.584	21743.8
738.761	21764.2
739.94	21768.8
741.117	21751.8
742.295	21738.9
743.471	21728.5
744.649	21710.7
745.825	21704.8
747.003	21706.9
748.179	21718.7
749.356	21737.3
750.531	21759.3
751.708	21781.9
752.883	21801
754.059	21812.9
755.234	21819.4
756.409	21820
757.585	21815.9
758.759	21805.8
759.934	21790.7
761.108	21769.5
762.282	21745
763.456	21726.3
764.63	21713.1
765.803	21717.3
766.977	21724.7
768.15	21735.9
769.323	21745.6
770.496	21755.1
771.668	21751.8
772.841	21710
774.014	21666.7
775.185	21646.4
776.357	21629.8
777.528	21607
778.701	21587.5
779.872	21571.5
781.042	21558.8
782.213	21550.4
783.383	21549.8
784.555	21550.6
785.725	21556.6
786.895	21533.2
788.064	21502.7
789.234	21469.7
790.404	21442
791.573	21423.3
792.742	21409.8
793.911	21401.1
795.08	21396
796.248	21394.9
797.416	21394
798.584	21391.4
799.753	21385.4
800.921	21369.9
802.088	21358
803.256	21345.1
804.423	21328.4
805.59	21316.2
806.756	21334.8
807.923	21363.3
809.089	21384.5
810.256	21394.2
811.422	21389.7
812.587	21359.7
813.753	21343.9
814.918	21377.9
816.084	21394.6
817.249	21411
818.414	21426.4
819.578	21437.5
820.743	21440.5
821.907	21439.3
823.072	21434
824.236	21425.6
825.399	21416.2
826.562	21426.5
827.725	21432.8
828.889	21440.2
830.052	21447.9
831.215	21458.7
832.377	21466.1
833.54	21471.6
834.701	21472.3
835.863	21457.9
837.025	21440.9
838.187	21428.4
839.349	21426.8
840.51	21438.3
841.67	21434.1
842.831	21423.9
843.992	21405.8
845.153	21383.3
846.312	21361.7
847.473	21343
848.633	21328.7
849.793	21324.6
850.951	21326.2
852.111	21329.2
853.27	21343
854.428	21353.8
855.588	21348.9
856.747	21332.6
857.904	21308.3
859.063	21288.5
860.221	21259.2
861.378	21233.2
862.536	21212.5
863.694	21195.3
864.85	21187.6
866.008	21183.2
867.164	21183.3
868.321	21187.8
869.478	21197.2
870.633	21191.7
871.79	21162.6
872.945	21133.9
874.101	21108.2
875.256	21085.3
876.412	21065.8
877.566	21049.4
878.722	21036.7
879.876	21024.2
881.031	21003.9
882.185	20982.9
883.34	20949.2
884.493	20920.5
885.647	20891.9
886.8	20877.5
887.954	20864.9
889.107	20869.2
890.261	20875.7
891.413	20878.8
892.565	20871
893.718	20866.3
894.87	20857.5
896.023	20869.4
897.174	20869.1
898.326	20895.9
899.478	20918.8
900.629	20942.9
901.779	20948.2
902.931	20949.4
904.081	20922.6
905.231	20897.7
906.383	20890.4
907.532	20889.2
908.682	20887.1
909.831	20908.5
910.982	20916.8
912.131	20916.8
913.28	20905.4
914.429	20905.2
915.578	20907.4
916.727	20913.4
917.875	20921
919.023	20933.9
920.171	20945.5
921.32	20955.1
922.467	20954.7
923.614	20954.6
924.761	20948.1
925.908	20958.1
927.055	20969.3
928.203	20980.3
929.349	20985.8
930.496	20986.1
931.642	20981.4
932.787	20965.7
933.933	20947.6
935.079	20928.7
936.224	20906.9
937.369	20900.2
938.514	20893.6
939.659	20895
940.804	20899.5
941.948	20895.6
943.092	20884.7
944.236	20850.6
945.38	20829.4
946.524	20813.4
947.667	20800.5
948.811	20789.8
949.954	20781.5
951.097	20775.1
952.24	20772.2
953.383	20771.6
954.525	20772.9
955.667	20776.1
956.81	20774.7
957.952	20761.8
959.093	20748.6
960.235	20730.3
961.376	20709.1
962.516	20680.4
963.658	20656.2
964.798	20648.9
965.939	20647.1
967.08	20639.7
968.22	20631.1
969.359	20622.2
970.499	20612.5
971.639	20601.1
972.779	20589.1
973.918	20575
975.056	20561.6
976.195	20557.8
977.334	20560.8
978.473	20575.1
979.61	20586.6
980.749	20590.2
981.887	20593.5
983.024	20595.9
984.162	20597.6
985.3	20598.7
986.437	20599.7
987.573	20602.2
988.711	20604.7
989.848	20605.6
990.983	20605.5
992.12	20604.1
993.255	20602.3
994.392	20596.4
995.528	20588.7
996.662	20582.3
997.798	20580.1
998.933	20581.9
1000.07	20587.6
1001.2	20597.5
1002.34	20604.2
1003.47	20599.5
1004.61	20587.4
1005.74	20568
1006.87	20567.9
1008.01	20583.3
1009.14	20611
1010.27	20622.5
1011.41	20620.8
1012.54	20615.8
1013.67	20609.2
1014.81	20605.4
1015.94	20599.4
1017.07	20596.3
1018.2	20592.4
1019.33	20587.1
1020.47	20580
1021.6	20570.2
1022.73	20549.6
1023.86	20533.2
1024.99	20515.1
1026.12	20494
1027.25	20490.9
1028.38	20488.8
1029.51	20498.5
1030.64	20502.7
1031.77	20511.8
1032.9	20476.4
1034.03	20437
1035.16	20399.3
1036.29	20361.8
1037.42	20328.9
1038.55	20318
1039.67	20311.7
1040.8	20303.5
1041.93	20289.7
1043.06	20270.7
1044.19	20249.7
1045.31	20225.2
1046.44	20198.2
1047.57	20167
1048.69	20136.3
1049.82	20139.5
1050.95	20162.1
1052.08	20196.3
1053.2	20224
1054.33	20235.8
1055.45	20178.7
1056.58	20148.2
1057.7	20112.8
1058.83	20072.2
1059.95	20041.5
1061.08	20029.7
1062.2	20049.5
1063.33	20069.6
1064.45	20077
1065.58	20076.3
1066.7	20006.8
1067.83	20023.4
1068.95	20025.6
1070.07	20026.7
1071.2	20027.6
1072.32	20026.5
1073.44	20028
1074.56	20012.1
1075.69	20013.8
1076.81	20023.9
1077.93	20038
1079.05	20050.8
1080.17	20047.2
1081.3	20040.1
1082.42	20034.1
1083.54	20028.7
1084.66	20024.4
1085.78	20019.7
1086.9	20015.3
1088.02	20010.8
1089.14	20005.4
1090.26	19999.2
1091.38	19993.6
1092.5	19988.9
1093.62	19987.4
1094.74	19989.4
1095.86	19994.4
1096.98	20001.2
1098.1	20010.6
1099.22	20022.2
1100.34	20036.8
1101.45	20045.1
1102.57	20036.6
1103.69	20021.1
1104.81	20009.6
1105.93	20003.8
1107.04	19997.8
1108.16	19995.3
1109.28	19992.9
1110.4	19990.5
1111.51	19988.2
1112.63	19983.2
1113.75	19976.1
1114.86	19964.2
1115.98	19949.2
1117.09	19929.2
1118.21	19904.7
1119.32	19875.9
1120.44	19845
1121.55	19813.5
1122.67	19783.5
1123.78	19757.7
1124.9	19731.8
1126.01	19715
1127.13	19704.5
1128.24	19699.8
1129.35	19695.7
1130.47	19694.2
1131.58	19687.4
1132.7	19671.4
1133.81	19648.6
1134.92	19620.1
1136.03	19581.2
1137.15	19530.7
1138.26	19456.4
1139.37	19445.7
1140.48	19455.1
1141.59	19476
1142.71	19477.4
1143.82	19466.6
1144.93	19442.8
1146.04	19416.5
1147.15	19396
1148.26	19375.7
1149.37	19354.1
1150.48	19335.2
1151.59	19320.7
1152.7	19321
1153.81	19333.2
1154.92	19355.5
1156.03	19382
1157.14	19335
1158.25	19309.5
1159.36	19287.6
1160.47	19274.6
1161.58	19268.1
1162.68	19259.5
1163.79	19252.4
1164.9	19245.7
1166.01	19242.8
1167.12	19245.1
1168.22	19249.7
1169.33	19257
1170.44	19267.4
1171.55	19279.1
1172.65	19280.4
1173.76	19277.8
1174.87	19266.6
1175.97	19255.1
1177.08	19254.6
1178.18	19258.7
1179.29	19269.6
1180.4	19282.8
1181.5	19281.2
1182.61	19276.1
1183.71	19268.6
1184.82	19251.2
1185.92	19253.3
1187.02	19268.3
1188.13	19285.4
1189.23	19296.2
1190.34	19302.1
1191.44	19299.4
1192.54	19291.7
1193.65	19277.3
1194.75	19261.9
1195.85	19254.2
1196.96	19246.7
1198.06	19249.2
1199.16	19248.1
1200.26	19248.8
1201.37	19250.5
1202.47	19251.8
1203.57	19252.7
1204.67	19253
1205.77	19251.6
1206.87	19249.2
1207.97	19246.8
1209.08	19243.3
1210.18	19238.4
1211.28	19230.4
1212.38	19204.9
1213.48	19188.6
1214.58	19176.2
1215.68	19183.4
1216.78	19186.8
1217.88	19192.8
1218.98	19197.5
1220.07	19199.2
1221.17	19191.7
1222.27	19178.5
1223.37	19160.3
1224.47	19137.5
1225.57	19110.2
1226.66	19074.4
1227.76	19041.6
1228.86	19041.8
1229.96	19053.8
1231.06	19065.5
1232.15	19070.6
1233.25	19067.4
1234.35	19034.8
1235.44	19003.8
1236.54	18979.4
1237.63	18960.1
1238.73	18953.5
1239.83	18948.2
1240.92	18942.4
1242.02	18936.6
1243.11	18928.2
1244.21	18923.4
1245.3	18917.3
1246.4	18911.2
1247.49	18896.2
1248.59	18865.9
1249.68	18840.4
1250.78	18819.5
1251.87	18802.1
1252.96	18782.1
1254.06	18776.4
1255.15	18781.5
1256.24	18784.1
1257.34	18780.2
1258.43	18778.3
1259.52	18775.6
1260.62	18772.3
1261.71	18768.4
1262.8	18762.6
1263.89	18756.1
1264.98	18744.9
1266.08	18737.6
1267.17	18778.6
1268.26	18809.8
1269.35	18829.2
1270.44	18837.4
1271.53	18795.1
1272.62	18770.7
1273.71	18753.2
1274.8	18738.2
1275.89	18733.6
1276.98	18731
1278.07	18743.5
1279.16	18760
1280.25	18775.8
1281.34	18787.9
1282.43	18794.5
1283.52	18798.7
1284.61	18801.1
1285.69	18800.9
1286.78	18796.1
1287.87	18787
1288.96	18772.4
1290.05	18750.5
1291.13	18721.2
1292.22	18700
1293.31	18706.9
1294.4	18731.7
1295.48	18757.6
1296.57	18784.5
1297.66	18798.2
1298.74	18799.9
1299.83	18790.1
1300.92	18767.7
1302	18732.6
1303.09	18706.4
1304.17	18689.4
1305.26	18682.1
1306.34	18688.4
1307.43	18704.5
1308.51	18714.5
1309.6	18712.8
1310.68	18708.3
1311.76	18708.3
1312.85	18708.6
1313.93	18705.7
1315.02	18701.9
1316.1	18694.3
1317.18	18691.2
1318.27	18691.1
1319.35	18687
1320.43	18670.6
1321.52	18646.2
1322.6	18627
1323.68	18617.7
1324.76	18614.6
1325.85	18615.1
1326.93	18611.6
1328.01	18609.9
1329.09	18605.9
1330.17	18600.7
1331.25	18592.6
1332.33	18581.4
1333.41	18566.2
1334.49	18551
1335.58	18537.3
1336.65	18523.5
1337.74	18510
1338.82	18498.8
1339.89	18491.8
1340.97	18485.9
1342.05	18478.6
1343.13	18471.2
1344.21	18463.5
1345.29	18453.8
1346.37	18441
1347.45	18433.7
1348.53	18431.8
1349.6	18435
1350.68	18445.7
1351.76	18459.6
1352.84	18488.3
1353.92	18488.6
1354.99	18462.5
1356.07	18455
1357.15	18444.7
1358.22	18437.8
1359.3	18426.9
1360.38	18407.3
1361.45	18395.9
1362.53	18391.9
1363.61	18396.5
1364.68	18402.6
1365.76	18412.1
1366.83	18416.1
1367.91	18410.2
1368.98	18402.8
1370.06	18399.4
1371.13	18394.3
1372.21	18394.4
1373.28	18396.3
1374.35	18401.6
1375.43	18408.6
1376.5	18416.9
1377.58	18424.8
1378.65	18416.8
1379.72	18409
1380.8	18400.9
1381.87	18391.9
1382.94	18381.1
1384.01	18368.1
1385.09	18353.7
1386.16	18338.5
1387.23	18324.1
1388.3	18317
1389.38	18317.2
1390.45	18324.6
1391.52	18331.1
1392.59	18319.8
1393.66	18297.8
1393.92	18291.5
1395	18286.5
1396.07	18275.9
1397.15	18292.3
1398.22	18290.3
1399.3	18253.4
1400.38	18228.7
1401.45	18213.1
1402.53	18206.7
1403.6	18207.5
1404.68	18218.2
1405.75	18212.6
1406.82	18212.3
1407.9	18202
1408.97	18175.4
1410.05	18157.7
1411.12	18148.3
1412.19	18149.6
1413.27	18167.5
1414.34	18167.4
1415.41	18151.7
1416.49	18128.6
1417.56	18114.9
1418.63	18101
1419.7	18089.7
1420.78	18080.4
1421.85	18073.3
1422.92	18068.1
1423.99	18064.1
1425.06	18060.9
1426.14	18054.7
1427.21	18048.5
1428.28	18044.2
1429.35	18040
1430.42	18040.1
1431.49	18038.3
1432.56	18035.9
1433.63	18032.9
1434.7	18029.2
1435.77	18024.4
1436.84	18018.3
1437.91	18005
1438.98	17995.3
1440.05	17983.7
1441.12	17981.2
1442.18	17975.6
1443.25	17969.2
1444.32	17960.5
1445.39	17951.6
1446.46	17941.7
1447.53	17930.1
1448.59	17917.4
1449.66	17903
1450.73	17887.8
1451.8	17877.5
1452.86	17873
1453.93	17879
1455	17882.4
1456.06	17888.7
1457.13	17896.5
1458.2	17904.6
1459.26	17911.6
1460.33	17914.5
1461.39	17914
1462.46	17910
1463.52	17902.2
1464.59	17892.7
1465.65	17878.3
1466.72	17866.3
1467.78	17862.7
1468.85	17846.6
1469.91	17825.1
1470.98	17785.7
1472.04	17760.8
1473.1	17746.2
1474.17	17742.2
1475.23	17782.6
1476.3	17801
1477.36	17816.1
1478.42	17828.9
1479.48	17823.3
1480.55	17818.5
1481.61	17798.1
1482.67	17781.9
1483.73	17775.1
1484.8	17770.9
1485.86	17768.3
1486.92	17766.4
1487.98	17757
1489.04	17747.1
1490.1	17735.4
1491.17	17721.7
1492.23	17706.7
1493.29	17690.9
1494.35	17681.9
1495.41	17669.9
1496.47	17659.3
1497.53	17646.8
1498.59	17635.2
1499.65	17627.5
1500.71	17627.8
1501.77	17648.3
1502.83	17658.8
1503.88	17667.7
1504.94	17670.3
1506	17653.2
1507.06	17613.3
1508.12	17566.8
1509.18	17531.4
1510.23	17512.5
1511.29	17514.9
1512.35	17562.9
1513.41	17572.2
1514.47	17578.2
1515.52	17556.1
1516.58	17523.5
1517.64	17480.4
1518.69	17429.7
1519.75	17388.2
1520.81	17352.8
1521.86	17353.2
1522.92	17376.5
1523.97	17396.7
1525.03	17417.4
1526.08	17438.2
1527.14	17435.8
1528.2	17421.8
1529.25	17402.6
1530.31	17386.2
1531.36	17371.1
1532.42	17368.2
1533.47	17363.5
1534.52	17364.5
1535.58	17369.1
1536.63	17375.7
1537.69	17370.8
1538.74	17363.6
1539.79	17351.4
1540.84	17334.3
1541.9	17313.9
1542.95	17290.9
1544	17268.8
1545.06	17242.6
1546.11	17232.1
1547.16	17232.2
1548.21	17235
1549.27	17254.7
1550.32	17265.7
1551.37	17266
1552.42	17268.5
1553.47	17264.8
1554.52	17254.4
1555.57	17241
1556.62	17235.5
1557.67	17234
1558.72	17237.8
1559.77	17236
1560.82	17219.2
1561.87	17211.5
1562.92	17213.5
1563.97	17212.2
1565.02	17211.9
1566.07	17208.5
1567.12	17199.5
1568.17	17191
1569.22	17181.9
1570.27	17174
1571.32	17167.9
1572.36	17166.2
1573.41	17175.4
1574.46	17184.5
1575.51	17196.5
1576.56	17215.7
1577.6	17201.5
1578.65	17174.4
1579.7	17146.4
1580.74	17127.3
1581.79	17118.6
1582.84	17119.9
1583.88	17105.9
1584.93	17095.6
1585.98	17088.1
1587.02	17083.5
1588.07	17080
1589.11	17076.9
1590.16	17072.9
1591.2	17069.2
1592.25	17064.8
1593.29	17058.5
1594.34	17042.6
1595.38	17026.4
1596.43	17011.1
1597.47	16995
1598.52	16979.8
1599.56	16968.2
1600.6	16958.3
1601.65	16951.3
1602.69	16953.7
1603.73	16963.7
1604.78	16962.8
1605.82	16941.9
1606.86	16926.8
1607.91	16902.4
1608.95	16874.4
1609.99	16849.2
1611.03	16822.5
1612.08	16803.8
1613.12	16801.2
1614.16	16797
1615.2	16791.7
1616.24	16785.6
1617.28	16779.3
1618.32	16773.6
1619.36	16766.4
1620.41	16757.4
1621.45	16742.5
1622.49	16717.4
1623.53	16693.5
1624.57	16666.3
1625.61	16642.6
1626.65	16627.7
1627.69	16620.8
1628.73	16618.1
1629.76	16608.9
1630.8	16602.6
1631.84	16593.3
1632.88	16572.5
1633.92	16545.2
1634.96	16520.9
1636	16499.2
1637.03	16481.4
1638.07	16471.1
1639.11	16463.3
1640.15	16459.7
1641.19	16461.2
1642.22	16464
1643.26	16465.6
1644.3	16452.6
1645.33	16440.1
1646.37	16429.6
1647.41	16419.1
1648.44	16406.4
1649.48	16393.8
1650.52	16381.1
1651.55	16370.9
1652.59	16362.9
1653.62	16356.5
1654.66	16351.8
1655.69	16348.6
1656.73	16347.2
1657.76	16346
1658.8	16340
1659.83	16330.2
1660.87	16319.7
1661.9	16307
1662.93	16298.9
1663.97	16291.9
1665	16285.5
1666.04	16295.6
1667.07	16293.7
1668.1	16295.4
1669.14	16291.2
1670.17	16280.6
1671.2	16266.8
1672.23	16244.3
1673.27	16224.9
1674.3	16211.3
1675.33	16205.6
1676.36	16205.5
1677.39	16204.4
1678.43	16204.3
1679.46	16189.1
1680.49	16166.9
1681.52	16144.4
1682.55	16125.9
1683.58	16104.5
1684.61	16102.5
1685.64	16119.8
1686.67	16106.8
1687.7	16093.7
1688.73	16077.9
1689.76	16068.5
1690.79	16060.2
1691.82	16053.3
1692.85	16047.6
1693.88	16042.7
1694.91	16038.7
1695.94	16035.4
1696.97	16032.4
1698	16029.5
1699.02	16026.4
1700.05	16024.6
1701.08	16013
1702.11	15996
1703.14	15979.8
1704.16	15968.3
1705.19	15967.3
1706.22	15961.6
1707.25	15954.2
1708.27	15948.3
1709.3	15934.1
1710.33	15914.8
1711.35	15893.5
1712.38	15873.3
1713.41	15854.3
1714.43	15836.1
1715.46	15823.4
1716.48	15811.2
1717.51	15800.9
1718.53	15792.3
1719.56	15785.2
1720.58	15777.6
1721.61	15765.7
1722.63	15751.5
1723.66	15737.5
1724.68	15723.7
1725.71	15714.5
1726.73	15718.2
1727.75	15721.9
1728.78	15708.1
1729.8	15690.6
1730.83	15672.9
1731.85	15655.9
1732.87	15640
1733.89	15624.5
1734.92	15607.8
1735.94	15595.2
1736.96	15585.8
1737.98	15578.9
1739.01	15571.3
1740.03	15562.2
1741.05	15552.3
1742.07	15529.6
1743.09	15506.9
1744.12	15484.9
1745.14	15464.6
1746.16	15459.5
1747.18	15461.1
1748.2	15461.4
1749.22	15459.6
1750.24	15456
1751.26	15450.5
1752.28	15442.5
1753.3	15432.1
1754.32	15420.9
1755.34	15407
1756.36	15407.3
1757.38	15423.1
1758.4	15425.2
1759.42	15428.8
1760.44	15427.4
1761.45	15409.4
1762.47	15391
1763.49	15366
1764.51	15340.9
1765.53	15317.7
1766.55	15296.3
1767.56	15277.4
1768.58	15260.6
1769.6	15246
1770.61	15234.1
1771.63	15224.7
1772.65	15219.5
1773.67	15217.2
1774.68	15216.3
1775.7	15215.5
1776.72	15214.5
1777.73	15213.7
1778.75	15209.3
1779.76	15204
1780.78	15198.4
1781.79	15177.6
1782.81	15151.6
1783.83	15123.6
1784.84	15107.8
1785.85	15114.1
1786.87	15125.7
1787.88	15117.4
1788.9	15106.3
1789.91	15097.4
1790.93	15089.2
1791.94	15081.7
1792.95	15072.8
1793.97	15060.2
1794.98	15045.7
1796	15030.7
1797.01	15016.5
1798.02	15002.7
1799.03	14993.4
1800.05	14983.1
1801.06	14973.2
1802.07	14962.8
1803.08	14951.7
1804.1	14939.3
1805.11	14926.2
1806.12	14912.1
1807.13	14922
1808.14	14945.7
1809.15	14961.9
1810.17	14919.2
1811.18	14812.5
1812.19	14779.8
1813.2	14767.3
1814.21	14756
1815.22	14824.7
1816.23	14796.8
1817.24	14779.9
1818.25	14759.1
1819.26	14732.4
1820.27	14706.3
1821.28	14688.1
1822.29	14677.1
1823.3	14678.9
1824.3	14675.9
1825.31	14666.7
1826.32	14651.6
1827.33	14630
1828.34	14603.1
1829.35	14566.2
1830.35	14535.3
1831.36	14532.5
1832.37	14539.8
1833.38	14561.2
1834.38	14561.6
1835.39	14554.7
1836.4	14546.6
1837.41	14531.8
1838.41	14513.9
1839.42	14488.3
1840.43	14467.4
1841.43	14465
1842.44	14469.5
1843.44	14473.2
1844.45	14462.8
1845.46	14450
1846.46	14436.1
1847.47	14410.5
1848.47	14384.6
1849.48	14363.8
1850.48	14335.3
1851.49	14315
1852.49	14299.9
1853.49	14290.7
1854.5	14287
1855.5	14288.7
1856.51	14291.5
1857.51	14281.6
1858.51	14269.7
1859.52	14259.2
1860.52	14248.8
1861.52	14238.8
1862.53	14228.6
1863.53	14230.8
1864.53	14215.5
1865.54	14195.2
1866.54	14174.6
1867.54	14152.8
1868.54	14138.7
1869.54	14128.1
1870.55	14118.8
1871.55	14111
1872.55	14105.3
1873.55	14100.8
1874.55	14094.7
1875.55	14084.6
1876.55	14062.7
1877.55	14048.6
1878.55	14032.1
1879.55	14015.7
1880.56	13999.2
1881.55	13980.3
1882.56	13970.5
1883.55	13962.5
1884.55	13958.2
1885.55	13959.7
1886.55	13957.8
1887.55	13957.9
1888.55	13957
1889.55	13955.6
1890.55	13952.1
1891.55	13944.3
1892.55	13928.1
1893.54	13913.1
1894.54	13896.8
1895.54	13880.1
1896.54	13859.8
1897.54	13842.5
1898.53	13842.9
1899.53	13850.5
1900.53	13858.8
1901.52	13855.6
1902.52	13854.7
1903.52	13820
1904.51	13772.5
1905.51	13776.3
1906.51	13801.2
1907.5	13770.1
1908.5	13752.3
1909.49	13734.4
1910.49	13718.3
1911.49	13702.1
1912.48	13685.6
1913.48	13668.4
1914.47	13646
1915.46	13622.8
1916.46	13598.7
1917.45	13571.5
1918.45	13552.3
1919.44	13543.1
1920.44	13536.7
1921.43	13532.7
1922.43	13524
1923.42	13516.7
1924.41	13508.8
1925.41	13500.3
1926.4	13491.3
1927.39	13481.6
1928.38	13471.1
1929.38	13460.1
1930.37	13448.2
1931.36	13435.4
1932.35	13420.6
1933.35	13405
1934.34	13387.7
1935.33	13378.3
1936.32	13389.9
1937.31	13378.1
1938.3	13365.3
1939.29	13340.4
1940.29	13314.2
1941.28	13299.9
1942.27	13309.8
1943.26	13330.5
1944.25	13310.9
1945.24	13249.4
1946.23	13195.9
1947.22	13193.6
1948.21	13178
1949.2	13177.3
1950.19	13179.8
1951.18	13182.2
1952.17	13181.8
1953.16	13173.3
1954.14	13155.8
1955.13	13123.7
1956.12	13101.2
1957.11	13075.6
1958.1	13054.6
1959.09	13060.8
1960.07	13062.7
1961.06	13059.9
1962.05	13052.3
1963.04	13039.8
1964.02	13022.3
1965.01	12999.7
1966	12971.9
1966.99	12939.9
1967.97	12923.7
1968.96	12921.2
1969.95	12931.3
1970.93	12949.1
1971.92	12955.1
1972.9	12956.7
1973.89	12948.8
1974.88	12930.3
1975.86	12899.7
1976.85	12852.7
1977.83	12818.4
1978.82	12779.6
1979.8	12771.5
1980.79	12772.1
1981.77	12778.2
1982.76	12790.8
1983.74	12798.6
1984.72	12783.5
1985.71	12758.8
1986.69	12737.5
1987.67	12719.7
1988.66	12710.5
1989.64	12702.3
1990.62	12694.6
1991.61	12688.5
1992.59	12684.1
1993.57	12681.6
1994.56	12681.9
1995.54	12681.4
1996.52	12668.1
1997.5	12640.9
1998.49	12617.9
1999.47	12597.9
2000.45	12582
2001.43	12570.6
2002.41	12564.5
2003.39	12564
2004.38	12568
2005.36	12568.4
2006.34	12555.7
2007.32	12541.8
2008.3	12519.4
2009.28	12503.4
2010.26	12486.5
2011.24	12473.3
2012.22	12462.3
2013.2	12453.9
2014.18	12447.7
2015.16	12444
2016.14	12442.4
2017.12	12443
2018.1	12438
2019.07	12421.9
2020.05	12392.1
2021.03	12360.8
2022.01	12331.6
2022.99	12304.2
2023.97	12283.3
2024.95	12283
2025.92	12278.6
2026.9	12274.7
2027.88	12270.9
2028.86	12263.5
2029.83	12253.7
2030.81	12243
2031.79	12233
2032.76	12223
2033.74	12213.3
2034.72	12203.7
2035.69	12187.8
2036.67	12171.8
2037.65	12153.9
2038.62	12135.5
2039.6	12115
2040.57	12093.8
2041.55	12072.2
2042.52	12051.8
2043.5	12034.8
2044.47	12022.5
2045.45	12019.5
2046.42	12018.7
2047.4	12020.2
2048.37	12027.2
2049.35	12017.1
2050.32	11991.3
2051.29	11964.6
2052.27	11942.3
2053.24	11922.3
2054.21	11903.6
2055.19	11885.7
2056.16	11869.5
2057.13	11855.1
2058.11	11842.8
2059.08	11832.8
2060.05	11825.8
2061.02	11826.1
2062	11825.2
2062.97	11823.1
2063.94	11815.7
2064.91	11781.7
2065.89	11761.3
2066.86	11742.4
2067.83	11725.9
2068.8	11713.3
2069.77	11704.8
2070.74	11703.1
2071.71	11703.7
2072.68	11702.6
2073.65	11700
2074.62	11690.3
2075.59	11678
2076.56	11662.7
2077.53	11644.6
2078.5	11623.5
2079.47	11599.3
2080.44	11572.6
2081.41	11546.7
2082.38	11526.8
2083.35	11528.8
2084.32	11523.5
2085.29	11515.6
2086.26	11505.9
2087.23	11493.9
2088.19	11479.9
2089.16	11465.3
2090.13	11450.4
2091.1	11437.4
2092.07	11429
2093.03	11419.4
2094	11409.2
2094.97	11399.1
2095.94	11388.7
2096.9	11378.2
2097.87	11367.3
2098.84	11356.5
2099.8	11344.3
2100.77	11326
2101.74	11311.2
2102.7	11298.2
2103.67	11288
2104.63	11287.1
2105.6	11285.9
2106.56	11281.2
2107.53	11269.6
2108.49	11248.9
2109.46	11228.8
2110.42	11203
2111.39	11188.2
2112.35	11179.7
2113.32	11179.8
2114.28	11183.6
2115.25	11182.3
2116.21	11176.1
2117.17	11163.5
2118.14	11145.3
2119.1	11119.8
2120.07	11097.6
2121.03	11065.8
2121.99	11049.6
2122.96	11034.7
2123.92	11086.2
2124.88	11084.5
2125.84	10982.7
2126.81	10961.2
2127.77	10951.7
2128.73	10948
2129.69	10961.9
2130.65	10959.5
2131.62	10965.2
2132.58	10933
2133.54	10918.9
2134.5	10916.7
2135.46	10908.2
2136.42	10896.9
2137.38	10878.6
2138.34	10859.6
2139.3	10842.5
2140.26	10826.6
2141.22	10808.9
2142.18	10793.4
2143.14	10779.3
2144.1	10772.7
2145.06	10769.3
2146.02	10769
2146.98	10769.2
2147.94	10762.8
2148.9	10757.3
2149.86	10743.4
2150.82	10725
2151.78	10697.5
2152.74	10675.8
2153.69	10679
2154.65	10683.1
2155.61	10705.7
2156.57	10629.4
2157.53	10590.1
2158.48	10587.7
2159.44	10576.7
2160.4	10565
2161.36	10547.5
2162.31	10533.1
2163.27	10524
2164.23	10516.6
2165.18	10509.2
2166.14	10501.2
2167.1	10491.7
2168.05	10479.4
2169.01	10465.6
2169.96	10450.9
2170.92	10434.1
2171.88	10415.5
2172.83	10394.1
2173.79	10369.6
2174.74	10341.1
2175.7	10316.7
2176.65	10296.2
2177.6	10280
2178.56	10277
2179.51	10259
2180.47	10235.9
2181.42	10214.9
2182.38	10198.7
2183.33	10186.7
2184.28	10180.1
2185.24	10184.5
2186.19	10183.5
2187.14	10181
2188.1	10174.3
2189.05	10160
2190	10143.5
2190.96	10125.9
2191.91	10106.5
2192.86	10085.4
2193.81	10064.6
2194.76	10051.2
2195.72	10039.3
2196.67	10030.4
2197.62	10022.7
2198.57	10006.8
2199.52	9995.14
2200.47	9976.43
2201.43	9953.51
2202.38	9942.36
2203.33	9935.33
2204.28	9932.48
2205.23	9932.85
2206.18	9931.57
2207.13	9919.52
2208.08	9905.13
2209.03	9888.6
2209.98	9868.88
2210.93	9851.38
2211.88	9846.97
2212.83	9849.15
2213.78	9859.18
2214.73	9877.27
2215.67	9886.8
2216.62	9877.23
2217.57	9834.98
2218.52	9812.19
2219.47	9786.31
2220.42	9769.73
2221.37	9761.49
2222.31	9751.04
2223.26	9742.81
2224.21	9738.04
2225.16	9733.49
2226.1	9728.6
2227.05	9725.56
2228	9723.04
2228.94	9720.71
2229.89	9714.83
2230.84	9703.1
2231.78	9692.23
2232.73	9679.85
2233.68	9668.1
2234.62	9661.2
2235.57	9653.96
2236.51	9648.56
2237.46	9646.13
2238.41	9647.08
2239.35	9646.82
2240.3	9643.28
2241.24	9634.72
2242.19	9626.07
2243.13	9614.57
2244.07	9597.95
2245.02	9582.09
2245.96	9568.78
2246.91	9564.65
2247.85	9558.17
2248.8	9553.65
2249.74	9554.97
2250.68	9547.95
2251.63	9542.97
2252.57	9524.12
2253.51	9515.86
2254.46	9524.98
2255.4	9557.37
2256.34	9545.4
2257.28	9529.86
2258.23	9513.86
2259.17	9497.79
2260.11	9498.25
2261.05	9498.2
2262	9503.4
2262.94	9475.09
2263.88	9462
2264.82	9456.04
2265.76	9454.52
2266.7	9449.85
2267.64	9442.17
2268.58	9436.28
2269.53	9430.97
2270.47	9423.13
2271.41	9414.61
2272.35	9412.64
2273.29	9415.95
2274.23	9417.26
2275.17	9418.51
2276.11	9418.44
2277.05	9415.44
2277.99	9406.41
2278.93	9393.43
2279.86	9378
2280.8	9363.44
2281.74	9360.33
2282.68	9358.46
2283.62	9355.95
2284.56	9353.56
2285.5	9351.17
2286.44	9348.68
2287.37	9345.58
2288.31	9341.76
2289.25	9339.01
2290.19	9337.29
2291.12	9336.51
2292.06	9335.68
2293	9328.6
2293.94	9319.32
2294.87	9308.37
2295.81	9299.88
2296.75	9295.25
2297.68	9291.46
2298.62	9289.44
2299.55	9289.78
2300.49	9291.81
2301.43	9295.21
2302.36	9298.2
2303.3	9295.28
2304.23	9286.89
2305.17	9275.87
2306.1	9262.79
2307.04	9247.9
2307.98	9231.21
2308.91	9213.19
2309.84	9197.36
2310.78	9181.5
2311.71	9163.29
2312.65	9144.89
2313.58	9129.38
2314.52	9124.1
2315.45	9124.44
2316.38	9124.47
2317.32	9123.34
2317.72	9122.06
2318.66	9113.86
2319.6	9103.25
2320.54	9087.36
2321.48	9074.08
2322.41	9061.66
2323.35	9051.9
2324.29	9042.56
2325.23	9032.8
2326.16	9023.77
2327.1	9015.58
2328.04	9009.44
2328.97	9023.42
2329.91	9022.42
2330.85	9013.96
2331.78	9000.91
2332.72	8971.79
2333.66	8958.54
2334.59	8960.66
2335.53	8963.18
2336.46	8967.04
2337.4	8971.9
2338.33	8976.8
2339.27	8970.69
2340.2	8964.13
2341.14	8953.59
2342.07	8930.59
2343.01	8917.09
2343.94	8905.57
2344.88	8892.35
2345.81	8887.81
2346.75	8883.8
2347.68	8883.23
2348.61	8871.2
2349.55	8859.14
2350.48	8846.47
2351.41	8834.59
2352.35	8826.09
2353.28	8817.75
2354.21	8809.7
2355.15	8801.88
2356.08	8793.87
2357.01	8785.77
2357.94	8780.01
2358.88	8775.9
2359.81	8775.9
2360.74	8772.25
2361.67	8767.57
2362.6	8756.95
2363.54	8736.41
2364.47	8718.55
2365.4	8700.67
2366.33	8687.55
2367.26	8678.77
2368.19	8672.91
2369.12	8670.57
2370.05	8671.92
2370.98	8676.61
2371.91	8685.84
2372.84	8697.08
2373.77	8692.11
2374.7	8681.06
2375.63	8663.79
2376.56	8653.45
2377.49	8642.54
2378.42	8635.29
2379.35	8631.77
2380.28	8632.39
2381.21	8636.69
2382.14	8630.14
2383.07	8623.3
2384	8608.65
2384.92	8589.29
2385.85	8578.28
2386.78	8571.99
2387.71	8573.12
2388.64	8576.12
2389.56	8580.93
2390.49	8585.09
2391.42	8592.52
2392.35	8594.97
2393.27	8594.18
2394.2	8590.41
2395.13	8583.76
2396.05	8575.67
2396.98	8575.6
2397.91	8569.73
2398.83	8554.5
2399.76	8535.97
2400.69	8501.35
2401.61	8476.39
2402.54	8471.84
2403.46	8469.5
2404.39	8480.19
2405.31	8499.42
2406.24	8504.73
2407.17	8499.57
2408.09	8483.99
2409.01	8457.96
2409.94	8437.3
2410.86	8434.33
2411.79	8442.38
2412.71	8432.66
2413.64	8414.74
2414.56	8398.37
2415.49	8381.98
2416.41	8374.9
2417.33	8366.5
2418.26	8359.14
2419.18	8352.87
2420.1	8345.94
2421.03	8338.9
2421.95	8327.51
2422.87	8317.04
2423.79	8306.74
2424.72	8297.95
2425.64	8292.43
2426.56	8286.96
2427.48	8282.43
2428.41	8278.38
2429.33	8274.59
2430.25	8270.42
2431.17	8265.93
2432.09	8260.85
2433.01	8254.52
2433.93	8246.35
2434.86	8236.03
2435.78	8220.09
2436.7	8200.98
2437.62	8184.39
2438.54	8167.27
2439.46	8159.69
2440.38	8149.17
2441.3	8144.07
2442.22	8138.03
2443.14	8129.8
2444.06	8118.53
2444.98	8106.55
2445.9	8093.12
2446.82	8078.35
2447.73	8061.11
2448.65	8061.61
2449.57	8066.55
2450.49	8103.68
2451.41	8059.2
2452.33	8025.73
2453.25	8030.86
2454.17	8036.16
2455.08	8024.97
2456	8017.49
2456.92	8007.76
2457.84	7998.17
2458.75	7988.01
2459.67	7979.75
2460.59	7972.22
2461.51	7962.17
2462.42	7958.64
2463.34	7953.47
2464.26	7955.76
2465.17	7982.07
2466.09	7981.62
2467	7970.02
2467.92	7957.66
2468.84	7942.14
2469.75	7926.2
2470.67	7907.47
2471.58	7888.05
2472.5	7874.63
2473.42	7865.32
2474.33	7859.67
2475.25	7858.83
2476.16	7860.57
2477.08	7862.16
2477.99	7861.3
2478.9	7859.52
2479.82	7838.86
2480.73	7822.39
2481.65	7817.54
2482.56	7815.12
2483.47	7812.47
2484.39	7808.18
2485.3	7801.16
2486.22	7793.75
2487.13	7792.16
2488.04	7791
2488.96	7790.01
2489.87	7791.31
2490.78	7789.01
2491.69	7771.65
2492.61	7747.02
2493.52	7730.75
2494.43	7711.77
2495.34	7695.55
2496.25	7697.58
2497.17	7704.29
2498.08	7705.46
2498.99	7711.71
2499.9	7715.09
2500.81	7712.78
2501.72	7704.79
2502.63	7691.25
2503.55	7683.56
2504.46	7677.62
2505.37	7672.89
2506.28	7669.01
2507.19	7665.52
2508.1	7657.44
2509.01	7645.6
2509.92	7628.03
2510.83	7614.32
2511.74	7607.79
2512.65	7604.92
2513.56	7609.54
2514.47	7617.76
2515.37	7627.37
2516.28	7642.77
2517.19	7637.44
2518.1	7618.82
2519.01	7600.81
2519.92	7583.05
2520.83	7567.41
2521.73	7556.77
2522.64	7553.81
2523.55	7559.09
2524.46	7574.1
2525.37	7582.48
2526.27	7585.88
2527.18	7588.06
2528.09	7585.94
2529	7573.8
2529.9	7552.5
2530.81	7535.09
2531.72	7521.06
2532.62	7506.98
2533.53	7493.6
2534.44	7479.18
2535.34	7465.28
2536.25	7451.89
2537.15	7439.97
2538.06	7429.54
2538.96	7420.85
2539.87	7414.55
2540.78	7410.23
2541.68	7407.4
2542.59	7407.31
2543.49	7391.09
2544.4	7380.14
2545.3	7374.26
2546.21	7372.25
2547.11	7371.44
2548.01	7369.47
2548.92	7365.03
2549.82	7355.88
2550.73	7325.66
2551.63	7312.96
2552.53	7297.32
2553.44	7321.88
2554.34	7314.61
2555.24	7306.65
2556.15	7302.3
2557.05	7298.34
2557.95	7293.52
2558.86	7287.07
2559.76	7279.28
2560.66	7272.58
2561.56	7258.78
2562.46	7238.72
2563.37	7227.04
2564.27	7224.46
2565.17	7227.35
2566.07	7218.65
2566.97	7207.05
2567.88	7188.14
2568.78	7170.65
2569.68	7159.38
2570.58	7152.35
2571.48	7145.08
2572.38	7143.63
2573.28	7143.8
2574.18	7144.57
2575.08	7143.99
2575.98	7139.65
2576.88	7132.17
2577.78	7121.44
2578.68	7110.59
2579.58	7098.58
2580.48	7089.33
2581.38	7086.03
2582.28	7078.9
2583.18	7070.06
2584.08	7059.38
2584.98	7049.1
2585.88	7039.29
2586.77	7029.93
2587.67	7021.29
2588.57	7013.15
2589.47	7005.63
2590.37	7003.19
2591.27	7005.34
2592.16	7012.06
2593.06	7008.57
2593.96	7005.16
2594.86	6999.93
2595.75	6991.72
2596.65	6982.05
2597.55	6971.82
2598.45	6960.95
2599.34	6952.25
2600.24	6943.02
2601.13	6938.28
2602.03	6933.78
2602.93	6930.86
2603.82	6928.18
2604.72	6925.09
2605.62	6919.14
2606.51	6908.49
2607.41	6897.23
2608.3	6885.31
2609.2	6872.58
2610.09	6860.53
2610.99	6850.74
2611.88	6842.63
2612.78	6836.78
2613.67	6832.69
2614.57	6830.43
2615.46	6829.93
2616.36	6831
2617.25	6829.03
2618.14	6815.08
2619.04	6796.66
2619.93	6782.45
2620.83	6769.46
2621.72	6767.95
2622.61	6765.71
2623.5	6751.71
2624.4	6740.4
2625.29	6731.75
2626.18	6725.37
2627.08	6721.21
2627.97	6719.27
2628.86	6720.62
2629.75	6721.76
2630.65	6714.95
2631.54	6704.44
2632.43	6691.77
2633.32	6678.17
2634.21	6665.79
2635.11	6658.78
2636	6653.96
2636.89	6652.57
2637.78	6650.47
2638.67	6645.63
2639.56	6639.21
2640.45	6631.2
2641.34	6619.94
2642.23	6603.04
2643.12	6583.61
2644.01	6568.97
2644.9	6555.86
2645.79	6543.93
2646.68	6532.93
2647.57	6523.23
2648.46	6514.52
2649.35	6506.81
2650.24	6498.17
2651.13	6481.95
2652.02	6473.17
2652.91	6467.51
2653.8	6462.38
2654.69	6459.16
2655.58	6456.71
2656.46	6455.25
2657.35	6454.77
2658.24	6453.23
2659.13	6449.75
2660.02	6441.77
2660.9	6433.12
2661.79	6421.56
2662.68	6405.1
2663.57	6384.57
2664.45	6380.1
2665.34	6384.63
2666.23	6385.12
2667.11	6379.41
2668	6375.2
2668.89	6374.85
2669.77	6373.75
2670.66	6372.08
2671.55	6369.72
2672.43	6365.25
2673.32	6357.46
2674.21	6347.01
2675.09	6335.14
2675.98	6322.2
2676.86	6308.73
2677.75	6297.18
2678.63	6286.1
2679.52	6275.51
2680.4	6265.22
2681.29	6257.74
2682.17	6253.59
2683.06	6251.32
2683.94	6246.28
2684.82	6238.23
2685.71	6228.48
2686.59	6221.9
2687.48	6213.37
2688.36	6205.4
2689.24	6191.76
2690.13	6150.19
2691.01	6140.57
2691.89	6137.55
2692.78	6141.64
2693.66	6140.16
2694.54	6139.02
2695.43	6137.44
2696.31	6135.23
2697.19	6132.21
2698.07	6128.44
2698.96	6123.82
2699.84	6118.2
2700.72	6112.52
2701.6	6110.07
2702.48	6103.17
2703.36	6088.71
2704.25	6075.06
2705.13	6067.83
2706.01	6065.71
2706.89	6069.45
2707.77	6065.79
2708.65	6056.89
2709.53	6040.72
2710.41	6025.07
2711.29	6013.02
2712.17	6001.89
2713.05	5990.01
2713.93	5972.74
2714.81	5986.01
2715.69	5997.19
2716.57	6013.41
2717.45	6018.41
2718.33	6002.38
2719.21	5982.05
2720.09	5954.63
2720.97	5935.61
2721.85	5912.19
2722.73	5903.93
2723.61	5938.71
2724.48	5940.65
2725.36	5942.7
2726.24	5927.09
2727.12	5909.14
2728	5894.26
2728.88	5894.83
2729.75	5895.34
2730.63	5896.7
2731.51	5898.58
2732.39	5901.53
2733.26	5903.83
2734.14	5901.66
2735.02	5894.42
2735.89	5883.08
2736.77	5846.95
2737.65	5819.74
2738.52	5803.99
2739.4	5824.95
2740.28	5843.75
2741.15	5851.16
2742.03	5854.28
2742.9	5852.36
2743.78	5845.56
2744.65	5830.46
2745.53	5810.58
2746.41	5785.74
2747.28	5758.51
2748.16	5760.84
2749.03	5771.67
2749.91	5779.13
2750.78	5784.13
2751.66	5786.59
2752.53	5780.21
2753.4	5760.94
2754.28	5737.15
2755.15	5730.02
2756.02	5726.12
2756.9	5724.93
2757.77	5724.8
2758.65	5722.8
2759.52	5720.74
2760.39	5713.13
2761.27	5705.39
2762.14	5697.35
2763.01	5690.62
2763.88	5689.24
2764.76	5686.57
2765.63	5683.53
2766.5	5681.03
2767.37	5678.71
2768.25	5677.19
2769.12	5675.81
2769.99	5675.21
2770.86	5674.52
2771.73	5658.28
2772.61	5637.11
2773.48	5619.52
2774.35	5604.72
2775.22	5593.96
2776.09	5584.28
2776.96	5581.54
2777.83	5581.68
2778.7	5584.5
2779.57	5589.82
2780.44	5594.88
2781.31	5601.77
2782.18	5591.15
2783.05	5569.5
2783.92	5548.51
2784.79	5531.73
2785.66	5520.05
2786.53	5510.16
2787.4	5502.57
2788.27	5497.83
2789.14	5496.22
2790.01	5496.59
2790.88	5497.75
2791.75	5497.33
2792.62	5494.52
2793.48	5484.98
2794.35	5476.19
2795.22	5466.99
2796.09	5460.18
2796.96	5459.02
2797.82	5462.43
2798.69	5462.64
2799.56	5458.9
2800.43	5452.81
2801.29	5437.38
2802.16	5424
2803.03	5402.25
2803.9	5377.2
2804.76	5372.79
2805.63	5382.37
2806.5	5396.28
2807.36	5406.98
2808.23	5415.87
2809.09	5420.96
2809.96	5409.09
2810.83	5398.14
2811.69	5386.62
2812.56	5374.08
2813.42	5357.34
2814.29	5339.7
2815.15	5326.15
2816.02	5319.64
2816.88	5313.52
2817.75	5308.57
2818.61	5314.23
2819.48	5318.21
2820.34	5320.41
2821.21	5319.39
2822.07	5316.13
2822.94	5310.86
2823.8	5303.73
2824.66	5294.95
2825.53	5284.36
2826.39	5272.34
2827.26	5258.5
2828.12	5254.18
2828.98	5256.77
2829.85	5263
2830.71	5257.95
2831.57	5251.25
2832.43	5242.16
2833.3	5230.74
2834.16	5216.65
2835.02	5199.71
2835.88	5180.04
2836.75	5169.67
2837.61	5166.97
2838.47	5166.7
2839.33	5168.51
2840.19	5167.54
2841.06	5164.94
2841.92	5161.12
2842.78	5151.62
2843.64	5143.62
2844.5	5146.59
2845.36	5156.35
2846.22	5163.67
2847.08	5164.98
2847.94	5158.13
2848.81	5144.42
2849.67	5127.94
2850.53	5112.8
2851.39	5099.61
2852.25	5099.17
2853.11	5100.73
2853.97	5105.59
2854.82	5113
2855.68	5098.69
2856.54	5052.72
2857.4	5067.43
2858.26	5076.57
2859.12	5083.72
2859.98	5088.31
2860.84	5090.31
2861.7	5089.44
2862.56	5085.84
2863.41	5079.21
2864.27	5069.99
2865.13	5056.64
2865.99	5043.05
2866.85	5032.58
2867.7	5021.82
2868.56	5013.59
2869.42	5007.68
2870.28	5002.73
2871.13	4999.26
2871.99	4996.81
2872.85	4995.09
2873.7	4992.05
2874.56	4988.17
2875.42	4984.91
2876.27	4981.54
2877.13	4977.94
2877.99	4974.22
2878.84	4970.14
2879.7	4965.87
2880.56	4961.48
2881.41	4957
2882.27	4952.66
2883.12	4949.51
2883.98	4948.26
2884.83	4938.13
2885.69	4931.44
2886.54	4919.27
2887.4	4905
2888.25	4891.25
2889.11	4881.74
2889.96	4880.9
2890.82	4880.08
2891.67	4879.12
2892.52	4877.74
2893.38	4876.05
2894.23	4873.83
2895.09	4870.76
2895.94	4866.22
2896.79	4856.4
2897.65	4849.36
2898.5	4842.48
2899.35	4834.44
2900.21	4830.23
2901.06	4827.54
2901.91	4826.09
2902.76	4824.98
2903.62	4823.76
2904.47	4820.08
2905.32	4804.35
2906.17	4792.59
2907.03	4780.48
2907.88	4767.49
2908.73	4756.09
2909.58	4747.58
2910.43	4739.06
2911.28	4730.97
2912.14	4722.81
2912.99	4714
2913.84	4705.84
2914.69	4700.2
2915.54	4697.62
2916.39	4698.13
2917.24	4704.24
2918.09	4716.56
2918.94	4735.61
2919.79	4706.98
2920.64	4683.88
2921.49	4671.15
2922.34	4662.33
2923.19	4651.3
2924.04	4646.99
2924.89	4643.6
2925.74	4642.87
2926.59	4643.3
2927.44	4644.83
2928.29	4643.25
2929.14	4621.44
2929.98	4606.64
2930.83	4595.12
2931.68	4586.45
2932.53	4580.73
2933.38	4577.69
2934.23	4576.75
2935.07	4577.81
2935.92	4581.31
2936.77	4586.54
2937.62	4589.29
2938.47	4586.9
2939.31	4569.12
2940.16	4555.71
2941.01	4544.19
2941.85	4537.57
2942.7	4541.42
2943.55	4541.22
2944.39	4538.29
2945.24	4532.7
2946.09	4524.97
2946.93	4514.56
2947.78	4502.87
2948.63	4494.71
2949.47	4489.01
2950.32	4487.04
2951.16	4489.38
2952.01	4496.53
2952.85	4497.82
2953.7	4497.4
2954.55	4489.08
2955.39	4472.25
2956.24	4461.17
2957.08	4451.94
2957.92	4443.05
2958.77	4435.49
2959.61	4431.02
2960.46	4430.67
2961.3	4422.21
2962.15	4413.92
2962.99	4406.66
2963.83	4400.87
2964.68	4396.74
2965.52	4393.66
2966.37	4391.79
2967.21	4391.06
2968.05	4391.71
2968.9	4392.99
2969.74	4392.86
2970.58	4385.29
2971.42	4373.67
2972.27	4362.74
2973.11	4353.37
2973.95	4345.34
2974.79	4339.29
2975.64	4334.9
2976.48	4332.06
2977.32	4330.85
2978.16	4331.39
2979	4333.7
2979.85	4335.45
2980.69	4334.66
2981.53	4324.71
2982.37	4308.68
2983.21	4296.96
2984.05	4291.3
2984.89	4291.17
2985.73	4288.92
2986.57	4291.91
2987.41	4291.34
2988.25	4284.18
2989.1	4277.76
2989.94	4271.23
2990.77	4262.85
2991.62	4256.78
2992.45	4258.63
2993.29	4260.02
2994.13	4278.07
2994.97	4285.1
2995.81	4277.74
2996.65	4259.08
2997.49	4236.71
2998.33	4236.98
2999.17	4251.64
