200.833	20854.4
202.102	20909.4
203.371	20866.8
204.639	20887.8
205.907	20899.5
207.175	20911.2
208.442	20923.7
209.71	20934.2
210.977	20946.2
212.244	20961.3
213.511	20978.9
214.777	21000.6
216.042	21027
217.309	21059.5
218.575	21095.6
219.84	21134.8
221.106	21173.8
222.371	21214.5
223.635	21251.5
224.9	21283.8
226.165	21318.3
227.429	21353.2
228.694	21391
229.956	21432
231.22	21477.8
232.484	21524.6
233.747	21569.5
235.011	21613.3
236.272	21647.2
237.535	21677.8
238.798	21705.6
240.06	21729.8
241.321	21752.4
242.583	21776.8
243.845	21814.7
245.105	21867.3
246.367	21910.1
247.628	21944.4
248.888	21971
250.149	21990.4
251.409	22004.6
252.67	22003.7
253.928	21992.1
255.189	21988.8
256.447	21991.3
257.707	22000.7
258.966	22015.9
260.224	22041.2
261.483	22072.4
262.742	22108.7
263.999	22149.1
265.257	22191
266.514	22213.7
267.772	22228.4
269.028	22235.4
270.286	22232.2
271.543	22199.4
272.799	22226.8
274.056	22265.9
275.311	22313.3
276.568	22348.3
277.823	22372.9
279.079	22384.9
280.333	22390.8
281.589	22410.8
282.843	22435.8
284.099	22463.4
285.352	22494.2
286.607	22525
287.86	22556.1
289.114	22586.8
290.368	22617.8
291.621	22647.9
292.875	22676.3
294.127	22703.1
295.38	22726
296.632	22743.9
297.884	22758.3
299.137	22762.7
300.388	22766.7
301.641	22768
302.891	22767.4
304.142	22764.2
305.394	22763.7
306.644	22763.9
307.894	22775.1
309.146	22814.7
310.395	22841.9
311.645	22868.9
312.895	22890.5
314.144	22900
315.393	22901.8
316.642	22916.9
317.892	22929.3
319.14	22942.6
320.388	22958.9
321.637	22974.1
322.885	22988.6
324.132	23004.5
325.38	23021.9
326.628	23039.8
327.875	23063.1
329.122	23113.6
330.368	23161.1
331.614	23200
332.862	23236.4
334.108	23267.5
335.353	23295.2
336.599	23318.8
337.844	23338.3
339.089	23353.8
340.335	23365.2
341.58	23372.9
342.824	23375.9
344.068	23372.5
345.312	23367.3
346.556	23367.2
347.8	23395.7
349.043	23435.1
350.286	23476.6
351.53	23496.1
352.774	23506.1
354.016	23506.8
355.259	23500.2
356.501	23488.1
357.743	23474.7
358.985	23481.2
360.227	23485.5
361.468	23497.2
362.709	23507.1
363.95	23504.9
365.191	23502.2
366.432	23498.3
367.672	23496.9
368.912	23499.3
370.152	23504.7
371.392	23514.2
372.632	23526.2
373.871	23541.1
375.11	23556.1
376.348	23542.5
377.587	23550.7
378.825	23571.8
380.064	23629.9
381.302	23673.7
382.54	23698.5
383.778	23700.9
385.016	23709.5
386.253	23717.6
387.489	23728.1
388.726	23735.5
389.963	23750.9
391.199	23783.4
392.436	23823.7
393.672	23860.4
394.907	23888.5
396.142	23905.6
397.378	23910.3
398.614	23911.9
399.849	23912.7
401.082	23924.5
402.317	23940.3
403.552	23957.7
404.786	23974.8
406.019	23970.6
407.253	23968
408.487	23975.3
409.721	23987.3
410.953	24005.9
412.186	24028.7
413.419	24055.3
414.651	24081.6
415.883	24087.3
417.116	24077.5
418.347	24058.7
419.579	24051.2
420.811	24049.3
422.041	24057.7
423.272	24072.9
424.504	24094.8
425.733	24124.3
426.964	24155.6
428.194	24185
429.424	24200
430.654	24207.3
431.883	24206.6
433.113	24180.3
434.341	24153.4
435.571	24138.5
436.799	24130.9
438.028	24131.1
439.257	24140
440.484	24161
441.713	24187.6
442.94	24222.2
444.168	24241.8
445.394	24247.6
446.622	24255.1
447.848	24264.6
449.076	24269.8
450.301	24278.9
451.528	24259.5
452.754	24249.5
453.979	24244.1
455.205	24258.5
456.43	24297.7
457.656	24311.1
458.88	24318.9
460.106	24324.4
461.33	24330.9
462.554	24337.7
463.779	24343.3
465.002	24352.1
466.225	24363.3
467.45	24370.9
468.672	24372.9
469.895	24371
471.119	24365.1
472.341	24356.8
473.563	24344.7
474.786	24329.2
476.008	24309.2
477.229	24286.1
478.452	24260.2
479.673	24242.3
480.894	24271.9
482.115	24273.6
483.337	24276.4
484.557	24280.9
485.777	24285.8
486.997	24290.5
488.218	24294.4
489.438	24297.1
490.657	24299
491.876	24299.2
493.096	24298
494.315	24292.6
495.533	24286
496.752	24278.8
497.97	24273
499.188	24274.5
500.407	24277.6
501.625	24280.9
502.842	24283.8
504.059	24283.6
505.276	24282.6
506.493	24279.3
507.71	24276.1
508.926	24274.4
510.142	24285.8
511.358	24323
512.575	24353.3
513.791	24368.3
515.006	24375.4
516.222	24393.5
517.437	24407.3
518.651	24419.9
519.866	24431.3
521.081	24441.9
522.295	24452.3
523.509	24462.9
524.723	24473.6
525.937	24484
527.15	24494.3
528.363	24503.5
529.576	24509
530.789	24510.9
532.002	24510.3
533.215	24511.6
534.426	24514.7
535.638	24519
536.85	24524.9
538.061	24530.1
539.273	24534.3
540.484	24537.4
541.695	24539
542.906	24539.2
544.117	24539.6
545.327	24539.1
546.537	24536.2
547.747	24531.4
548.957	24525.7
550.167	24519.4
551.377	24527.9
552.585	24539.2
553.794	24554.5
555.003	24572.6
556.212	24598.4
557.421	24617.3
558.628	24616.4
559.836	24608.2
561.044	24593.1
562.252	24567.2
563.458	24563.1
564.666	24557.7
565.873	24559.7
567.08	24579.4
568.286	24571.5
569.493	24562.3
570.699	24554.1
571.904	24552.9
573.111	24552.5
574.317	24561.7
575.521	24578
576.727	24593.5
577.932	24608.4
579.136	24622.2
580.341	24625.4
581.544	24630.1
582.749	24632.1
583.954	24627.7
585.156	24623.6
586.361	24643.5
587.563	24661.7
588.767	24668.6
589.97	24659.9
591.172	24653.7
592.375	24645.4
593.577	24637.3
594.78	24630.9
595.981	24625
597.183	24637.3
598.384	24646.6
599.586	24648.1
600.786	24657.4
601.988	24669.9
603.188	24658.4
604.389	24652
605.589	24644.6
606.79	24636.2
607.989	24626.6
609.188	24615.5
610.389	24602.1
611.587	24586.2
612.787	24567.2
613.986	24547.8
615.184	24528.1
616.383	24510.9
617.581	24497.4
618.78	24486.7
619.977	24477.3
621.174	24472.1
622.373	24471.2
623.57	24471.3
624.766	24463.7
625.964	24446.1
627.16	24415.7
628.356	24375.4
629.554	24360.5
630.749	24371.8
631.945	24368.8
633.14	24346.1
634.337	24309.5
635.532	24281.8
636.726	24255.6
637.921	24238.8
639.117	24238.1
640.311	24242
641.505	24244.1
642.699	24285.3
643.892	24263.9
645.087	24249.4
646.28	24237.7
647.473	24231.6
648.666	24232.1
649.859	24241.4
651.051	24257.4
652.245	24280.7
653.437	24300.1
654.629	24315
655.821	24314.2
657.012	24316.3
658.204	24305.7
659.395	24312.2
660.586	24328.5
661.777	24350.5
662.967	24379.8
664.158	24418.8
665.349	24432.7
666.539	24420.5
667.729	24400.1
668.919	24355.4
670.109	24345.8
671.298	24354.7
672.487	24359.7
673.676	24371.2
674.865	24398.1
676.053	24419.2
677.242	24425.4
678.43	24423.7
679.616	24420.6
680.804	24415.7
681.992	24410.3
683.179	24402.6
684.366	24393.4
685.554	24382.6
686.74	24370.3
687.927	24356.4
689.114	24340.5
690.3	24324
691.486	24311
692.671	24300.4
693.856	24292.3
695.042	24286.2
696.227	24282.6
697.413	24279
698.598	24275
699.781	24269.9
700.966	24263.5
702.15	24255.9
703.334	24247.2
704.518	24236
705.701	24215.4
706.885	24186.8
708.068	24153.3
709.252	24132.4
710.433	24112.2
711.616	24103.2
712.799	24099.6
713.98	24101
715.163	24107
716.345	24115.6
717.527	24125.2
718.707	24130.8
719.889	24134.3
721.071	24136.9
722.25	24137.7
723.432	24136.3
724.611	24133.3
725.792	24128.1
726.972	24120.5
728.151	24111.7
729.332	24102.9
730.512	24108.9
731.69	24121.6
732.87	24136.9
734.048	24150.2
735.227	24163.1
736.405	24176
737.584	24187.8
738.761	24199.9
739.94	24211.4
741.117	24222.4
742.295	24232.1
743.471	24237.5
744.649	24239.8
745.825	24236.9
747.003	24245
748.179	24246.3
749.356	24254.4
750.531	24257.1
751.708	24251.6
752.883	24238.2
754.059	24217.6
755.234	24202.6
756.409	24206.4
757.585	24210.9
758.759	24223.7
759.934	24245.7
761.108	24277.2
762.282	24300.9
763.456	24286.8
764.63	24223.4
765.803	24180
766.977	24132.4
768.15	24096.7
769.323	24078.7
770.496	24077.8
771.668	24098.4
772.841	24107.1
774.014	24123.7
775.185	24119.3
776.357	24109
777.528	24086.7
778.701	24064.9
779.872	24046.1
781.042	24029
782.213	24012.1
783.383	23994.9
784.555	23978.6
785.725	23962.5
786.895	23947.4
788.064	23932.1
789.234	23917.2
790.404	23903.4
791.573	23893.1
792.742	23890.7
793.911	23894.7
795.08	23911.6
796.248	23847.1
797.416	23801.3
798.584	23795.3
799.753	23789.5
800.921	23788.3
802.088	23793.5
803.256	23775.8
804.423	23776.8
805.59	23768
806.756	23812.7
807.923	23821.6
809.089	23821.4
810.256	23821.8
811.422	23824
812.587	23827.2
813.753	23833.3
814.918	23838.7
816.084	23843.9
817.249	23848.6
818.414	23853.4
819.578	23857.6
820.743	23858.5
821.907	23856
823.072	23851.1
824.236	23852.3
825.399	23864.7
826.562	23871.2
827.725	23876.1
828.889	23822.4
830.052	23819.1
831.215	23822.2
832.377	23827.9
833.54	23858.4
834.701	23881.7
835.863	23906.6
837.025	23924.4
838.187	23923.9
839.349	23914.3
840.51	23895.3
841.67	23883.1
842.831	23868.6
843.992	23844.1
845.153	23840.5
846.312	23840.1
847.473	23852
848.633	23868.6
849.793	23866.1
850.951	23860.9
852.111	23845.7
853.27	23824.2
854.428	23798.9
855.588	23772
856.747	23758.4
857.904	23766
859.063	23773.9
860.221	23756.9
861.378	23736.2
862.536	23710
863.694	23685.9
864.85	23659.3
866.008	23631.8
867.164	23603
868.321	23573.7
869.478	23544.3
870.633	23517
871.79	23516.1
872.945	23527.3
874.101	23541.1
875.256	23565.5
876.412	23582.7
877.566	23488.7
878.722	23455.2
879.876	23430.7
881.031	23417.4
882.185	23412.3
883.34	23411.9
884.493	23403.2
885.647	23391.9
886.8	23381.8
887.954	23365.1
889.107	23347.4
890.261	23328.3
891.413	23317.1
892.565	23329.6
893.718	23345.4
894.87	23359.9
896.023	23345.7
897.174	23333.9
898.326	23319.7
899.478	23306.9
900.629	23297.2
901.779	23288.2
902.931	23289.3
904.081	23307.2
905.231	23324.7
906.383	23335.4
907.532	23339.7
908.682	23336.6
909.831	23326.5
910.982	23308.3
912.131	23302.2
913.28	23308.8
914.429	23326.7
915.578	23342.2
916.727	23365.1
917.875	23370.4
919.023	23373.3
920.171	23369.9
921.32	23364.4
922.467	23335.1
923.614	23330.5
924.761	23323.3
925.908	23328.3
927.055	23339.5
928.203	23382.9
929.349	23410.1
930.496	23439
931.642	23445.5
932.787	23432.9
933.933	23410.9
935.079	23389
936.224	23350.4
937.369	23327.8
938.514	23305.3
939.659	23337.1
940.804	23354.9
941.948	23349.2
943.092	23330.9
944.236	23310.9
945.38	23293.8
946.524	23282.1
947.667	23271
948.811	23259.6
949.954	23250.4
951.097	23239.3
952.24	23225.5
953.383	23207.3
954.525	23187.9
955.667	23167.2
956.81	23151.7
957.952	23133.1
959.093	23112
960.235	23090.3
961.376	23068.7
962.516	23049.9
963.658	23040
964.798	23040.6
965.939	23046.6
967.08	23060.3
968.22	23085.4
969.359	23117.2
970.499	23099.1
971.639	23064.4
972.779	23010.5
973.918	22981.6
975.056	23007.8
976.195	23009.9
977.334	23005.9
978.473	23000.5
979.61	22998.7
980.749	22979.1
981.887	22958.8
983.024	22949.8
984.162	22950.6
985.3	22959.8
986.437	22980.2
987.573	23000.7
988.711	23005.1
989.848	22999.4
990.983	22989.4
992.12	22973.7
993.255	22957.9
994.392	22959.4
995.528	22962.1
996.662	22968.5
997.798	22977.2
998.933	22989
1000.07	23003.4
1001.2	23019.1
1002.34	23036.1
1003.47	23046.8
1004.61	23049.7
1005.74	23042.9
1006.87	23034.7
1008.01	23021.6
1009.14	23003.5
1010.27	22994.4
1011.41	22993
1012.54	22999.5
1013.67	23010.4
1014.81	23018.6
1015.94	23020.4
1017.07	22990
1018.2	22971.5
1019.33	22943.2
1020.47	22912.4
1021.6	22881.4
1022.73	22861.2
1023.86	22854.8
1024.99	22860.9
1026.12	22877.9
1027.25	22891.9
1028.38	22892.3
1029.51	22882.2
1030.64	22863.1
1031.77	22835.4
1032.9	22804.1
1034.03	22779.1
1035.16	22760.3
1036.29	22752.3
1037.42	22740.2
1038.55	22725
1039.67	22710.3
1040.8	22695.8
1041.93	22679.9
1043.06	22661.9
1044.19	22641
1045.31	22612
1046.44	22589.1
1047.57	22577.8
1048.69	22567.9
1049.82	22561.6
1050.95	22558.8
1052.08	22562.6
1053.2	22568.7
1054.33	22556.5
1055.45	22525.4
1056.58	22498.1
1057.7	22467.8
1058.83	22445.3
1059.95	22435.8
1061.08	22439.5
1062.2	22433.3
1063.33	22435.8
1064.45	22428.1
1065.58	22416.3
1066.7	22399.4
1067.83	22379.1
1068.95	22386.1
1070.07	22418.2
1071.2	22444.3
1072.32	22446.3
1073.44	22399.1
1074.56	22354.8
1075.69	22339
1076.81	22342
1077.93	22351
1079.05	22359.8
1080.17	22368.8
1081.3	22376.3
1082.42	22383
1083.54	22390.3
1084.66	22398.8
1085.78	22408
1086.9	22417.6
1088.02	22427.4
1089.14	22436.6
1090.26	22444.3
1091.38	22449.9
1092.5	22453.1
1093.62	22453.6
1094.74	22450.7
1095.86	22445.7
1096.98	22437.2
1098.1	22426
1099.22	22414.8
1100.34	22406.9
1101.45	22403.9
1102.57	22403.5
1103.69	22408.5
1104.81	22418.1
1105.93	22433.3
1107.04	22434.9
1108.16	22404.8
1109.28	22376.1
1110.4	22340.3
1111.51	22309.4
1112.63	22283.9
1113.75	22263.3
1114.86	22248.5
1115.98	22240.8
1117.09	22238.3
1118.21	22239
1119.32	22237.4
1120.44	22233.7
1121.55	22191.1
1122.67	22173.6
1123.78	22144.4
1124.9	22118.9
1126.01	22101.4
1127.13	22092.2
1128.24	22096.7
1129.35	22062.9
1130.47	22008.2
1131.58	21977.5
1132.7	21950.5
1133.81	21965.2
1134.92	21966.9
1136.03	21959.7
1137.15	21941.3
1138.26	21882.6
1139.37	21856.4
1140.48	21832.5
1141.59	21810.9
1142.71	21792.9
1143.82	21778.8
1144.93	21767.4
1146.04	21757.8
1147.15	21746.6
1148.26	21729.3
1149.37	21706.4
1150.48	21676.5
1151.59	21640.1
1152.7	21598.8
1153.81	21553.1
1154.92	21525.9
1156.03	21512.5
1157.14	21570.8
1158.25	21590.7
1159.36	21590.7
1160.47	21584.3
1161.58	21593
1162.68	21606.7
1163.79	21620.7
1164.9	21628.6
1166.01	21630.4
1167.12	21602.8
1168.22	21573.5
1169.33	21555.1
1170.44	21537.1
1171.55	21532.6
1172.65	21532.7
1173.76	21542.6
1174.87	21553.4
1175.97	21567.3
1177.08	21580.8
1178.18	21599.4
1179.29	21618
1180.4	21636.9
1181.5	21650.6
1182.61	21639.8
1183.71	21612.2
1184.82	21554.4
1185.92	21549.8
1187.02	21568.3
1188.13	21595.4
1189.23	21618.9
1190.34	21629.2
1191.44	21640.3
1192.54	21646.9
1193.65	21648.1
1194.75	21645.5
1195.85	21636.7
1196.96	21619.9
1198.06	21601.1
1199.16	21586
1200.26	21589.2
1201.37	21598
1202.47	21613.8
1203.57	21638
1204.67	21670.3
1205.77	21700.6
1206.87	21712.6
1207.97	21665.1
1209.08	21596.3
1210.18	21525.8
1211.28	21538.1
1212.38	21528
1213.48	21520.8
1214.58	21519.8
1215.68	21530.2
1216.78	21545.8
1217.88	21559.1
1218.98	21568.5
1220.07	21572
1221.17	21571.2
1222.27	21563.5
1223.37	21548.8
1224.47	21526.8
1225.57	21495.8
1226.66	21453.2
1227.76	21417.2
1228.86	21388.8
1229.96	21370.8
1231.06	21366
1232.15	21376.1
1233.25	21379.7
1234.35	21373.3
1235.44	21358.3
1236.54	21333.5
1237.63	21300.1
1238.73	21259.6
1239.83	21209.7
1240.92	21184.9
1242.02	21176.6
1243.11	21177.2
1244.21	21185.1
1245.3	21192.3
1246.4	21195.9
1247.49	21193.4
1248.59	21185.1
1249.68	21176.9
1250.78	21170.1
1251.87	21163
1252.96	21154.8
1254.06	21145.7
1255.15	21135.1
1256.24	21123.6
1257.34	21109.8
1258.43	21099.7
1259.52	21095.3
1260.62	21099.1
1261.71	21104.7
1262.8	21102.7
1263.89	21095.7
1264.98	21086.3
1266.08	21073
1267.17	21058.1
1268.26	21037.9
1269.35	21023.8
1270.44	21020.1
1271.53	21025.1
1272.62	21040.3
1273.71	21059.4
1274.8	21061.6
1275.89	21068.8
1276.98	21071
1278.07	21069.3
1279.16	21066.2
1280.25	21067.4
1281.34	21081.3
1282.43	21091.7
1283.52	21097.5
1284.61	21101.4
1285.69	21103.7
1286.78	21104.5
1287.87	21105.3
1288.96	21101.7
1290.05	21098.1
1291.13	21094.3
1292.22	21089.9
1293.31	21089.5
1294.4	21091.1
1295.48	21095.8
1296.57	21102.2
1297.66	21110.2
1298.74	21118.2
1299.83	21123.3
1300.92	21119.4
1302	21104.8
1303.09	21093
1304.17	21087.2
1305.26	21084.3
1306.34	21087.1
1307.43	21094
1308.51	21100.4
1309.6	21102.1
1310.68	21096.7
1311.76	21089.2
1312.85	21078.8
1313.93	21065.2
1315.02	21048.4
1316.1	21029
1317.18	21007.6
1318.27	20985.2
1319.35	20969.7
1320.43	20963.1
1321.52	20956.9
1322.6	20952.2
1323.68	20952
1324.76	20944.5
1325.85	20938.1
1326.93	20928.8
1328.01	20917.2
1329.09	20904.3
1330.17	20892.5
1331.25	20883.9
1332.33	20877.2
1333.41	20872.1
1334.49	20869.5
1335.58	20865.5
1336.65	20855.6
1337.74	20841.8
1338.82	20822.3
1339.89	20799.5
1340.97	20789.1
1342.05	20781
1343.13	20778.1
1344.21	20780.1
1345.29	20787.4
1346.37	20795.6
1347.45	20795.9
1348.53	20787.1
1349.6	20773
1350.68	20762
1351.76	20750.4
1352.84	20739.5
1353.92	20732.8
1354.99	20734.2
1356.07	20741.2
1357.15	20746.9
1358.22	20742.3
1359.3	20732.5
1360.38	20720.1
1361.45	20713.6
1362.53	20707.6
1363.61	20708.1
1364.68	20709.1
1365.76	20709.6
1366.83	20711.1
1367.91	20714.6
1368.98	20717.3
1370.06	20720.3
1371.13	20722.6
1372.21	20723.5
1373.28	20722.3
1374.35	20720.9
1375.43	20717.6
1376.5	20711
1377.58	20701.6
1378.65	20688.7
1379.72	20672.8
1380.8	20658.3
1381.87	20651.4
1382.94	20652
1384.01	20650
1385.09	20648.2
1386.16	20643.6
1387.23	20633.4
1388.3	20619
1389.38	20617.3
1390.45	20618.6
1391.52	20616.9
1392.59	20615.7
1393.66	20605.7
1393.92	20601.7
1395	20590.4
1396.07	20576.5
1397.15	20562.3
1398.22	20548
1399.3	20534.2
1400.38	20526.4
1401.45	20518.2
1402.53	20510.9
1403.6	20505.7
1404.68	20504.3
1405.75	20509.1
1406.82	20518.7
1407.9	20527.2
1408.97	20534.9
1410.05	20541.8
1411.12	20537.9
1412.19	20529.9
1413.27	20516.2
1414.34	20497.7
1415.41	20474.5
1416.49	20449.3
1417.56	20427.7
1418.63	20409.4
1419.7	20404.2
1420.78	20395
1421.85	20389.9
1422.92	20386
1423.99	20378.5
1425.06	20368.6
1426.14	20344
1427.21	20336.4
1428.28	20328.7
1429.35	20332.9
1430.42	20337.2
1431.49	20348.3
1432.56	20365.7
1433.63	20356
1434.7	20341.9
1435.77	20330.3
1436.84	20317.3
1437.91	20306.7
1438.98	20297.6
1440.05	20288.7
1441.12	20281.1
1442.18	20273.8
1443.25	20266.8
1444.32	20258.3
1445.39	20244.2
1446.46	20230.4
1447.53	20222.2
1448.59	20223.9
1449.66	20211.7
1450.73	20198.3
1451.8	20184.6
1452.86	20170.7
1453.93	20162.1
1455	20159.6
1456.06	20166.4
1457.13	20175.2
1458.2	20198.1
1459.26	20240.5
1460.33	20256.9
1461.39	20262.7
1462.46	20241.4
1463.52	20204.1
1464.59	20165.4
1465.65	20133.3
1466.72	20115.9
1467.78	20093.7
1468.85	20109.9
1469.91	20156.7
1470.98	20187
1472.04	20185.4
1473.1	20167.2
1474.17	20140.2
1475.23	20110.8
1476.3	20092.3
1477.36	20075.5
1478.42	20064.1
1479.48	20057.9
1480.55	20056.7
1481.61	20060.7
1482.67	20069.6
1483.73	20083.6
1484.8	20102.5
1485.86	20097.2
1486.92	20081.2
1487.98	20054
1489.04	20041.8
1490.1	20019.6
1491.17	20013.5
1492.23	20034.4
1493.29	20059.3
1494.35	20002.6
1495.41	19988.8
1496.47	19974.1
1497.53	19961.4
1498.59	19950.5
1499.65	19938.3
1500.71	19932.7
1501.77	19940.3
1502.83	19947.9
1503.88	19967.3
1504.94	19962.5
1506	19950.2
1507.06	19927.8
1508.12	19902.8
1509.18	19877.3
1510.23	19854.4
1511.29	19843.3
1512.35	19834.5
1513.41	19823.5
1514.47	19818.2
1515.52	19794.2
1516.58	19756.7
1517.64	19739.6
1518.69	19724.3
1519.75	19719.7
1520.81	19730.4
1521.86	19736.2
1522.92	19741.5
1523.97	19740.1
1525.03	19738.2
1526.08	19714.2
1527.14	19695.2
1528.2	19677.2
1529.25	19661.3
1530.31	19646.7
1531.36	19633.7
1532.42	19621.5
1533.47	19613.8
1534.52	19607
1535.58	19605.2
1536.63	19602.1
1537.69	19597.1
1538.74	19585
1539.79	19567.6
1540.84	19553.6
1541.9	19542.8
1542.95	19536.9
1544	19544
1545.06	19554.5
1546.11	19554.1
1547.16	19550.6
1548.21	19547.2
1549.27	19546.6
1550.32	19544.8
1551.37	19543.3
1552.42	19541.6
1553.47	19540.7
1554.52	19541
1555.57	19544.1
1556.62	19549
1557.67	19551.6
1558.72	19553.6
1559.77	19553.7
1560.82	19545
1561.87	19532.7
1562.92	19507.4
1563.97	19486.3
1565.02	19475.7
1566.07	19468.5
1567.12	19463.7
1568.17	19461.6
1569.22	19460.3
1570.27	19457.5
1571.32	19455.9
1572.36	19454.9
1573.41	19455.2
1574.46	19456.7
1575.51	19459.8
1576.56	19465.8
1577.6	19472.9
1578.65	19478.4
1579.7	19482.9
1580.74	19480.6
1581.79	19473.9
1582.84	19454.8
1583.88	19441.9
1584.93	19432.8
1585.98	19423.3
1587.02	19413.6
1588.07	19403.8
1589.11	19394.5
1590.16	19384.7
1591.2	19375.3
1592.25	19366.8
1593.29	19362.2
1594.34	19369.4
1595.38	19378.2
1596.43	19301.9
1597.47	19233.4
1598.52	19251.7
1599.56	19252.6
1600.6	19254
1601.65	19251
1602.69	19241.7
1603.73	19227.1
1604.78	19203.2
1605.82	19174.1
1606.86	19139.8
1607.91	19100.8
1608.95	19093.7
1609.99	19094.9
1611.03	19102.6
1612.08	19115.8
1613.12	19133.3
1614.16	19148
1615.2	19138
1616.24	19122.8
1617.28	19080.5
1618.32	19062.7
1619.36	19044
1620.41	19024.2
1621.45	19003.8
1622.49	18983.1
1623.53	18962.3
1624.57	18941.5
1625.61	18921
1626.65	18901.4
1627.69	18883.8
1628.73	18875.6
1629.76	18858.3
1630.8	18841.6
1631.84	18825.7
1632.88	18810.6
1633.92	18801.8
1634.96	18794.6
1636	18789.9
1637.03	18787.4
1638.07	18788.1
1639.11	18789.8
1640.15	18759.7
1641.19	18732.8
1642.22	18710
1643.26	18691.8
1644.3	18678.7
1645.33	18663.5
1646.37	18660.7
1647.41	18660.8
1648.44	18665.1
1649.48	18672.6
1650.52	18682.1
1651.55	18692.2
1652.59	18682.7
1653.62	18671.2
1654.66	18669.2
1655.69	18666.5
1656.73	18662.3
1657.76	18657.1
1658.8	18650.9
1659.83	18643.2
1660.87	18615.9
1661.9	18585.1
1662.93	18561.5
1663.97	18555.4
1665	18567.4
1666.04	18606.8
1667.07	18614.1
1668.1	18601.7
1669.14	18581.4
1670.17	18556.7
1671.2	18526.5
1672.23	18489.8
1673.27	18454.7
1674.3	18439.2
1675.33	18419.9
1676.36	18429.2
1677.39	18446.5
1678.43	18457.7
1679.46	18463.2
1680.49	18464.1
1681.52	18458.3
1682.55	18447.1
1683.58	18431.2
1684.61	18411.6
1685.64	18389
1686.67	18386.7
1687.7	18380.1
1688.73	18377.1
1689.76	18376.2
1690.79	18378.4
1691.82	18379.4
1692.85	18377.2
1693.88	18370
1694.91	18360.7
1695.94	18352.2
1696.97	18343.1
1698	18332.6
1699.02	18321.7
1700.05	18310.1
1701.08	18301.4
1702.11	18271
1703.14	18225.4
1704.16	18203.6
1705.19	18231.6
1706.22	18235.4
1707.25	18237.9
1708.27	18238.8
1709.3	18239.5
1710.33	18240.8
1711.35	18227
1712.38	18205.8
1713.41	18179.3
1714.43	18148.1
1715.46	18112
1716.48	18072.3
1717.51	18045
1718.53	18027.8
1719.56	18020.6
1720.58	18020.5
1721.61	18016.3
1722.63	18021.2
1723.66	18020.2
1724.68	18009
1725.71	17996
1726.73	17983.6
1727.75	17968.6
1728.78	17951.4
1729.8	17932.8
1730.83	17913
1731.85	17892.5
1732.87	17872.3
1733.89	17865.9
1734.92	17857.5
1735.94	17851.6
1736.96	17848.9
1737.98	17847.4
1739.01	17824.3
1740.03	17805.4
1741.05	17787.4
1742.07	17768
1743.09	17757.5
1744.12	17749.6
1745.14	17744.4
1746.16	17742.9
1747.18	17740.5
1748.2	17735.7
1749.22	17716.7
1750.24	17689.9
1751.26	17672.9
1752.28	17658
1753.3	17645
1754.32	17634.6
1755.34	17627.5
1756.36	17623
1757.38	17617.6
1758.4	17610.2
1759.42	17595.9
1760.44	17583.2
1761.45	17570.3
1762.47	17560.9
1763.49	17552.7
1764.51	17547.5
1765.53	17544.2
1766.55	17543
1767.56	17543.8
1768.58	17546.3
1769.6	17550.5
1770.61	17522.6
1771.63	17483.1
1772.65	17419.3
1773.67	17406.1
1774.68	17417
1775.7	17435
1776.72	17451.8
1777.73	17464.4
1778.75	17427.3
1779.76	17404
1780.78	17381.4
1781.79	17362
1782.81	17353.2
1783.83	17349.6
1784.84	17351.7
1785.85	17358.3
1786.87	17369
1787.88	17380.1
1788.9	17354.2
1789.91	17339.3
1790.93	17321
1791.94	17308
1792.95	17295.6
1793.97	17282.8
1794.98	17270.7
1796	17261
1797.01	17247.7
1798.02	17225.2
1799.03	17170.8
1800.05	17136.1
1801.06	17118.4
1802.07	17120
1803.08	17117.9
1804.1	17126.2
1805.11	17121.1
1806.12	17107.9
1807.13	17075.6
1808.14	17047.1
1809.15	17020.3
1810.17	17014.2
1811.18	17043.6
1812.19	17040.1
1813.2	17028.6
1814.21	17017.8
1815.22	17004.6
1816.23	16985.6
1817.24	16962
1818.25	16937.8
1819.26	16915.2
1820.27	16909.9
1821.28	16910.5
1822.29	16906.8
1823.3	16902.9
1824.3	16896.5
1825.31	16891.4
1826.32	16876
1827.33	16856.8
1828.34	16833.9
1829.35	16806.8
1830.35	16777
1831.36	16751.2
1832.37	16745.4
1833.38	16735.7
1834.38	16726
1835.39	16715
1836.4	16707.6
1837.41	16699.9
1838.41	16691
1839.42	16680.1
1840.43	16665.9
1841.43	16647.3
1842.44	16620.2
1843.44	16589
1844.45	16559.8
1845.46	16535.8
1846.46	16540
1847.47	16549.3
1848.47	16542.7
1849.48	16523.7
1850.48	16507
1851.49	16487.6
1852.49	16470.1
1853.49	16461.9
1854.5	16460.7
1855.5	16473.5
1856.51	16482.4
1857.51	16492.6
1858.51	16480.5
1859.52	16465.8
1860.52	16446.9
1861.52	16425
1862.53	16400.1
1863.53	16372.1
1864.53	16360.1
1865.54	16353.7
1866.54	16344.5
1867.54	16328
1868.54	16306.8
1869.54	16283.2
1870.55	16257
1871.55	16240.2
1872.55	16232.6
1873.55	16227
1874.55	16226.5
1875.55	16233.7
1876.55	16235.5
1877.55	16232.2
1878.55	16215.6
1879.55	16199.3
1880.56	16181.6
1881.55	16162.9
1882.56	16142.5
1883.55	16121.3
1884.55	16108.1
1885.55	16111.7
1886.55	16120.2
1887.55	16113.3
1888.55	16104.9
1889.55	16095.7
1890.55	16085
1891.55	16072.3
1892.55	16058.2
1893.54	16041.4
1894.54	16024.7
1895.54	16012.7
1896.54	16001.6
1897.54	15985.6
1898.53	15970.6
1899.53	15955.1
1900.53	15941.9
1901.52	15929
1902.52	15916.5
1903.52	15899.7
1904.51	15876.5
1905.51	15856
1906.51	15836.2
1907.5	15822.3
1908.5	15821.3
1909.49	15823.1
1910.49	15829.2
1911.49	15836.9
1912.48	15842.5
1913.48	15841.8
1914.47	15822.8
1915.46	15799.9
1916.46	15764.3
1917.45	15722.1
1918.45	15687.5
1919.44	15659.9
1920.44	15638.5
1921.43	15622.9
1922.43	15613.4
1923.42	15610
1924.41	15612.9
1925.41	15620.3
1926.4	15625
1927.39	15622.8
1928.38	15621.9
1929.38	15611.2
1930.37	15597.4
1931.36	15581.1
1932.35	15562.1
1933.35	15541.4
1934.34	15520.4
1935.33	15508.2
1936.32	15494.7
1937.31	15482
1938.3	15469.7
1939.29	15458
1940.29	15446.8
1941.28	15436.1
1942.27	15426.3
1943.26	15404.6
1944.25	15381.7
1945.24	15348.9
1946.23	15322
1947.22	15303.4
1948.21	15292.9
1949.2	15290.9
1950.19	15260
1951.18	15225.5
1952.17	15203.3
1953.16	15191.3
1954.14	15214.6
1955.13	15196.3
1956.12	15166.6
1957.11	15141.5
1958.1	15125.8
1959.09	15127.1
1960.07	15139.7
1961.06	15137.1
1962.05	15134
1963.04	15129.9
1964.02	15123.3
1965.01	15114
1966	15101.9
1966.99	15086.7
1967.97	15067.6
1968.96	15021.9
1969.95	15002.4
1970.93	15008.4
1971.92	15027.6
1972.9	15015.2
1973.89	15000.8
1974.88	14984.1
1975.86	14968.1
1976.85	14949.4
1977.83	14930.4
1978.82	14910.9
1979.8	14890.9
1980.79	14870.4
1981.77	14849.7
1982.76	14828.9
1983.74	14808.7
1984.72	14796.7
1985.71	14793.6
1986.69	14794.3
1987.67	14791.3
1988.66	14786.9
1989.64	14782.5
1990.62	14773.1
1991.61	14765.2
1992.59	14754
1993.57	14752.2
1994.56	14747.2
1995.54	14739
1996.52	14728
1997.5	14720.4
1998.49	14697.8
1999.47	14661.8
2000.45	14633.2
2001.43	14625
2002.41	14613.9
2003.39	14617
2004.38	14617.7
2005.36	14616.8
2006.34	14616.2
2007.32	14613.7
2008.3	14599.7
2009.28	14580.9
2010.26	14558.9
2011.24	14532.1
2012.22	14499.5
2013.2	14478.9
2014.18	14468.6
2015.16	14469.4
2016.14	14464.5
2017.12	14455.1
2018.1	14439.2
2019.07	14423
2020.05	14408.5
2021.03	14394.5
2022.01	14381
2022.99	14367.7
2023.97	14378
2024.95	14382.6
2025.92	14359.4
2026.9	14331.7
2027.88	14311.8
2028.86	14300.9
2029.83	14293.9
2030.81	14284.8
2031.79	14277.4
2032.76	14266.6
2033.74	14249.7
2034.72	14227.9
2035.69	14200.2
2036.67	14167.9
2037.65	14146.7
2038.62	14131.4
2039.6	14123.6
2040.57	14095.1
2041.55	14066.2
2042.52	14046.5
2043.5	14041.8
2044.47	14044.6
2045.45	14040.3
2046.42	14031.8
2047.4	14021.2
2048.37	14005.7
2049.35	13985.8
2050.32	13962.9
2051.29	13937.3
2052.27	13911.2
2053.24	13896.4
2054.21	13882.1
2055.19	13870.1
2056.16	13861
2057.13	13853.6
2058.11	13846.2
2059.08	13838
2060.05	13828.5
2061.02	13818.4
2062	13807.5
2062.97	13795.1
2063.94	13781.9
2064.91	13767.6
2065.89	13752.2
2066.86	13736.2
2067.83	13720
2068.8	13706.7
2069.77	13697.1
2070.74	13695.1
2071.71	13688.6
2072.68	13682.3
2073.65	13674.1
2074.62	13666.3
2075.59	13652.1
2076.56	13622.7
2077.53	13594.1
2078.5	13557.4
2079.47	13532.1
2080.44	13514.9
2081.41	13506.4
2082.38	13501
2083.35	13490.9
2084.32	13475.3
2085.29	13456.8
2086.26	13433.3
2087.23	13410.5
2088.19	13400.4
2089.16	13398.8
2090.13	13412.4
2091.1	13413.1
2092.07	13408.8
2093.03	13382
2094	13352.2
2094.97	13331.9
2095.94	13320.7
2096.9	13306.6
2097.87	13307.1
2098.84	13329.8
2099.8	13335.3
2100.77	13324.1
2101.74	13295
2102.7	13270.3
2103.67	13253.9
2104.63	13241.6
2105.6	13247.4
2106.56	13237.2
2107.53	13223.1
2108.49	13205.1
2109.46	13183.2
2110.42	13159.4
2111.39	13132.3
2112.35	13104.7
2113.32	13095.5
2114.28	13091.3
2115.25	13087.4
2116.21	13085.7
2117.17	13083.3
2118.14	13076.5
2119.1	13066.8
2120.07	13053.9
2121.03	13039.7
2121.99	13022.5
2122.96	13002.4
2123.92	12979.7
2124.88	12966
2125.84	12960.7
2126.81	12960.8
2127.77	12956.6
2128.73	12950.7
2129.69	12943.1
2130.65	12934.8
2131.62	12925.5
2132.58	12914.3
2133.54	12902
2134.5	12888.3
2135.46	12873.4
2136.42	12857.6
2137.38	12841.3
2138.34	12837.5
2139.3	12833.4
2140.26	12824.9
2141.22	12802.4
2142.18	12778.3
2143.14	12754.6
2144.1	12726.5
2145.06	12693.3
2146.02	12672.5
2146.98	12659.7
2147.94	12656.7
2148.9	12658.6
2149.86	12661.1
2150.82	12656.5
2151.78	12647.5
2152.74	12636.1
2153.69	12619.7
2154.65	12602.1
2155.61	12584.7
2156.57	12569.8
2157.53	12559.6
2158.48	12558.1
2159.44	12560.4
2160.4	12560.9
2161.36	12560.9
2162.31	12545.4
2163.27	12518
2164.23	12485.2
2165.18	12454.8
2166.14	12427.6
2167.1	12402.7
2168.05	12379.8
2169.01	12359.5
2169.96	12341.1
2170.92	12325.3
2171.88	12311.5
2172.83	12300.2
2173.79	12290.9
2174.74	12283.4
2175.7	12276.7
2176.65	12236.1
2177.6	12182.7
2178.56	12060.6
2179.51	12023.1
2180.47	12084.1
2181.42	12085.9
2182.38	12061.9
2183.33	12034.6
2184.28	12022.1
2185.24	12012.1
2186.19	12003.2
2187.14	11989
2188.1	11977.5
2189.05	11957.6
2190	11959.1
2190.96	11963.3
2191.91	11958.3
2192.86	11949.3
2193.81	11937.7
2194.76	11922.6
2195.72	11903.9
2196.67	11880.7
2197.62	11855.5
2198.57	11838.2
2199.52	11831.6
2200.47	11822.8
2201.43	11819.8
2202.38	11816.3
2203.33	11812.2
2204.28	11806.7
2205.23	11799.4
2206.18	11790.9
2207.13	11780.9
2208.08	11769.4
2209.03	11756.5
2209.98	11742.2
2210.93	11726.3
2211.88	11708.9
2212.83	11690
2213.78	11669.8
2214.73	11648.1
2215.67	11627.4
2216.62	11614.7
2217.57	11606.3
2218.52	11616.3
2219.47	11638.5
2220.42	11653.6
2221.37	11660.1
2222.31	11599.7
2223.26	11583.4
2224.21	11574
2225.16	11569
2226.1	11560.2
2227.05	11552
2228	11544.2
2228.94	11536.9
2229.89	11529.2
2230.84	11520.5
2231.78	11509.2
2232.73	11496.6
2233.68	11481.8
2234.62	11467.3
2235.57	11459.5
2236.51	11452.8
2237.46	11443.2
2238.41	11436.1
2239.35	11427.8
2240.3	11423.5
2241.24	11416.5
2242.19	11410.6
2243.13	11405.1
2244.07	11400.8
2245.02	11395.1
2245.96	11391.4
2246.91	11388.7
2247.85	11386.3
2248.8	11391.2
2249.74	11396.1
2250.68	11391.1
2251.63	11385.7
2252.57	11370.5
2253.51	11351.2
2254.46	11327
2255.4	11305.3
2256.34	11294.8
2257.28	11290.4
2258.23	11287.6
2259.17	11317.9
2260.11	11303.1
2261.05	11300.4
2262	11296.3
2262.94	11291.3
2263.88	11286.2
2264.82	11281.7
2265.76	11276.5
2266.7	11271
2267.64	11266.4
2268.58	11260.3
2269.53	11249
2270.47	11229.3
2271.41	11208.6
2272.35	11196.6
2273.29	11202
2274.23	11216.8
2275.17	11222.1
2276.11	11222.3
2277.05	11203.6
2277.99	11185.5
2278.93	11174.3
2279.86	11165.7
2280.8	11191.7
2281.74	11178.4
2282.68	11174.8
2283.62	11166.8
2284.56	11158.1
2285.5	11150.4
2286.44	11143.9
2287.37	11139.1
2288.31	11135.1
2289.25	11133.1
2290.19	11134.5
2291.12	11137.3
2292.06	11141.3
2293	11146
2293.94	11149.9
2294.87	11148
2295.81	11144.8
2296.75	11141.2
2297.68	11136.7
2298.62	11130.9
2299.55	11128.5
2300.49	11129.5
2301.43	11125.3
2302.36	11107
2303.3	11079.9
2304.23	11054.3
2305.17	11032.2
2306.1	11010.1
2307.04	10993
2307.98	10981.2
2308.91	10973.2
2309.84	10970.3
2310.78	10972.5
2311.71	10975.1
2312.65	10977.9
2313.58	10978.4
2314.52	10977.7
2315.45	10970.7
2316.38	10957
2317.32	10933
2317.72	10921.9
2318.66	10897.4
2319.6	10871.2
2320.54	10846
2321.48	10827.4
2322.41	10821.5
2323.35	10839.9
2324.29	10843.4
2325.23	10849.5
2326.16	10852
2327.1	10851.2
2328.04	10847
2328.97	10837.9
2329.91	10827
2330.85	10805
2331.78	10782.6
2332.72	10756.4
2333.66	10735
2334.59	10711.7
2335.53	10696.5
2336.46	10698.4
2337.4	10695.1
2338.33	10688.7
2339.27	10686.9
2340.2	10679.2
2341.14	10664.8
2342.07	10657.1
2343.01	10651.6
2343.94	10644.6
2344.88	10640
2345.81	10639.9
2346.75	10646
2347.68	10626.1
2348.61	10604.9
2349.55	10580.7
2350.48	10577.2
2351.41	10585.8
2352.35	10600.6
2353.28	10592.3
2354.21	10580.3
2355.15	10567.4
2356.08	10550.2
2357.01	10535.9
2357.94	10526.2
2358.88	10518.5
2359.81	10509.3
2360.74	10506.4
2361.67	10513.5
2362.6	10506.4
2363.54	10501.5
2364.47	10495.1
2365.4	10486.3
2366.33	10481.3
2367.26	10476.8
2368.19	10473.2
2369.12	10471.5
2370.05	10471
2370.98	10472.6
2371.91	10471.7
2372.84	10460.9
2373.77	10449.3
2374.7	10433.3
2375.63	10423.6
2376.56	10414.8
2377.49	10408.3
2378.42	10402.9
2379.35	10401.6
2380.28	10401.6
2381.21	10402.5
2382.14	10404.4
2383.07	10398.6
2384	10389.8
2384.92	10378.2
2385.85	10366.3
2386.78	10350.9
2387.71	10335.7
2388.64	10323.6
2389.56	10312.2
2390.49	10301.8
2391.42	10292.2
2392.35	10286.8
2393.27	10285.8
2394.2	10285.6
2395.13	10287.5
2396.05	10281.2
2396.98	10275.8
2397.91	10267
2398.83	10259
2399.76	10255.5
2400.69	10255.3
2401.61	10260.2
2402.54	10256.6
2403.46	10245.8
2404.39	10234.3
2405.31	10217.4
2406.24	10198.1
2407.17	10174.6
2408.09	10156
2409.01	10152.5
2409.94	10158.5
2410.86	10162.3
2411.79	10163.5
2412.71	10164.4
2413.64	10160.5
2414.56	10151.2
2415.49	10137.8
2416.41	10122.5
2417.33	10102.4
2418.26	10078.6
2419.18	10057.3
2420.1	10041.6
2421.03	10032.9
2421.95	10025.6
2422.87	10019.1
2423.79	10015
2424.72	10017.8
2425.64	10018.8
2426.56	10016.5
2427.48	10010.4
2428.41	9999.17
2429.33	9984.37
2430.25	9966.68
2431.17	9943.11
2432.09	9915.66
2433.01	9887.59
2433.93	9864.88
2434.86	9855.89
2435.78	9848.46
2436.7	9846.69
2437.62	9849.99
2438.54	9856.83
2439.46	9866.33
2440.38	9853.4
2441.3	9831.99
2442.22	9810.36
2443.14	9800.67
2444.06	9796
2444.98	9795.85
2445.9	9793.06
2446.82	9783.58
2447.73	9772.37
2448.65	9749.39
2449.57	9730.27
2450.49	9712.01
2451.41	9699.33
2452.33	9690.66
2453.25	9679.22
2454.17	9668.04
2455.08	9658.03
2456	9649.38
2456.92	9642.41
2457.84	9636.08
2458.75	9630.03
2459.67	9622.58
2460.59	9615.64
2461.51	9609.11
2462.42	9605.2
2463.34	9605.46
2464.26	9609.93
2465.17	9607.14
2466.09	9602.83
2467	9584.01
2467.92	9555.07
2468.84	9522.29
2469.75	9507.78
2470.67	9495.01
2471.58	9488.24
2472.5	9486.67
2473.42	9476.83
2474.33	9465.72
2475.25	9456.85
2476.16	9448.75
2477.08	9442.53
2477.99	9443.95
2478.9	9453.33
2479.82	9458.43
2480.73	9462.88
2481.65	9466.06
2482.56	9465.46
2483.47	9460.63
2484.39	9458.36
2485.3	9460.83
2486.22	9462.08
2487.13	9458.59
2488.04	9448.81
2488.96	9438.29
2489.87	9420.18
2490.78	9398.31
2491.69	9373.31
2492.61	9345.6
2493.52	9352.21
2494.43	9365.58
2495.34	9395.92
2496.25	9362.38
2497.17	9357.85
2498.08	9352.97
2498.99	9347.69
2499.9	9341.68
2500.81	9334.94
2501.72	9327.12
2502.63	9322.49
2503.55	9315.29
2504.46	9305.04
2505.37	9292.51
2506.28	9278.08
2507.19	9265.93
2508.1	9264.38
2509.01	9263.04
2509.92	9247.37
2510.83	9236.07
2511.74	9222.75
2512.65	9206.88
2513.56	9209.88
2514.47	9213.24
2515.37	9225.03
2516.28	9238.23
2517.19	9254.07
2518.1	9257.68
2519.01	9245.19
2519.92	9239.79
2520.83	9226.38
2521.73	9214.13
2522.64	9206.83
2523.55	9185.62
2524.46	9183.59
2525.37	9190.72
2526.27	9194.87
2527.18	9195.33
2528.09	9192.42
2529	9186.67
2529.9	9172.49
2530.81	9146.97
2531.72	9107.98
2532.62	9084.81
2533.53	9073.76
2534.44	9072.15
2535.34	9061.16
2536.25	9052.65
2537.15	9046.72
2538.06	9042.91
2538.96	9040.63
2539.87	9039.9
2540.78	9039.49
2541.68	9035.67
2542.59	9028.27
2543.49	9021.11
2544.4	9013.85
2545.3	9006.01
2546.21	8998.54
2547.11	8986.93
2548.01	8969.26
2548.92	8946.73
2549.82	8923.52
2550.73	8906
2551.63	8899
2552.53	8898.3
2553.44	8902.8
2554.34	8912.44
2555.24	8925.82
2556.15	8923.64
2557.05	8916.57
2557.95	8899.07
2558.86	8877.28
2559.76	8861.6
2560.66	8850.58
2561.56	8842.94
2562.46	8836.88
2563.37	8831.11
2564.27	8833.99
2565.17	8818.33
2566.07	8800.07
2566.97	8773.23
2567.88	8755.24
2568.78	8743.51
2569.68	8738.02
2570.58	8738.99
2571.48	8730.27
2572.38	8723.54
2573.28	8719.16
2574.18	8705.79
2575.08	8697.02
2575.98	8688.02
2576.88	8691.44
2577.78	8691.43
2578.68	8687.44
2579.58	8679.42
2580.48	8671.03
2581.38	8669.21
2582.28	8646.02
2583.18	8616.94
2584.08	8583.92
2584.98	8549.67
2585.88	8542.11
2586.77	8547.7
2587.67	8566.47
2588.57	8565.6
2589.47	8549.84
2590.37	8529.6
2591.27	8505.12
2592.16	8489.9
2593.06	8475.69
2593.96	8468.67
2594.86	8464.12
2595.75	8465.24
2596.65	8466.64
2597.55	8466.39
2598.45	8463.68
2599.34	8456.64
2600.24	8448.44
2601.13	8437.72
2602.03	8424.82
2602.93	8409.83
2603.82	8392.92
2604.72	8390.25
2605.62	8385.29
2606.51	8388.9
2607.41	8392.83
2608.3	8396.93
2609.2	8396.62
2610.09	8394.27
2610.99	8389.12
2611.88	8380.85
2612.78	8369.48
2613.67	8355.95
2614.57	8340.75
2615.46	8326.58
2616.36	8312.6
2617.25	8299.68
2618.14	8287.82
2619.04	8277.97
2619.93	8272.31
2620.83	8269.65
2621.72	8269.48
2622.61	8271.94
2623.5	8274.68
2624.4	8274.46
2625.29	8273.88
2626.18	8274.04
2627.08	8273.9
2627.97	8270.4
2628.86	8258.42
2629.75	8225.68
2630.65	8175.59
2631.54	8167.38
2632.43	8154.84
2633.32	8147
2634.21	8143.9
2635.11	8136.7
2636	8138.19
2636.89	8135.94
2637.78	8126.71
2638.67	8112.58
2639.56	8094.69
2640.45	8079.83
2641.34	8064.26
2642.23	8048.94
2643.12	8034.06
2644.01	8019.98
2644.9	8007.22
2645.79	7995.93
2646.68	7986.6
2647.57	7978.84
2648.46	7971.32
2649.35	7963.86
2650.24	7955.92
2651.13	7945.86
2652.02	7935.06
2652.91	7925.7
2653.8	7917.38
2654.69	7910.97
2655.58	7904.48
2656.46	7898.77
2657.35	7893.87
2658.24	7889.54
2659.13	7885.36
2660.02	7881.24
2660.9	7877.56
2661.79	7874.03
2662.68	7870.88
2663.57	7867.91
2664.45	7865.15
2665.34	7862.12
2666.23	7858.89
2667.11	7853.33
2668	7845.33
2668.89	7829.72
2669.77	7813.36
2670.66	7798.49
2671.55	7784.62
2672.43	7770.22
2673.32	7768.18
2674.21	7770.5
2675.09	7773.36
2675.98	7772.01
2676.86	7769.11
2677.75	7765.31
2678.63	7759.42
2679.52	7752.18
2680.4	7742.91
2681.29	7731.53
2682.17	7716.95
2683.06	7692.41
2683.94	7666.45
2684.82	7645.23
2685.71	7627.73
2686.59	7611.72
2687.48	7601.97
2688.36	7596.86
2689.24	7593.24
2690.13	7590.89
2691.01	7589.35
2691.89	7585.23
2692.78	7579.3
2693.66	7573.05
2694.54	7566.37
2695.43	7558.74
2696.31	7550.5
2697.19	7542.8
2698.07	7535.36
2698.96	7528.52
2699.84	7522.42
2700.72	7514.94
2701.6	7505.22
2702.48	7492.05
2703.36	7479.63
2704.25	7467.46
2705.13	7455.46
2706.01	7448.61
2706.89	7440.86
2707.77	7435.29
2708.65	7432.06
2709.53	7429.5
2710.41	7423.2
2711.29	7405.02
2712.17	7393.96
2713.05	7378.57
2713.93	7379.34
2714.81	7382.7
2715.69	7387.96
2716.57	7396.05
2717.45	7404.12
2718.33	7393.53
2719.21	7378.51
2720.09	7354.02
2720.97	7334.7
2721.85	7318.99
2722.73	7310.33
2723.61	7308.1
2724.48	7319.81
2725.36	7331.16
2726.24	7340.69
2727.12	7337.87
2728	7311.8
2728.88	7299.7
2729.75	7286.51
2730.63	7271.85
2731.51	7260.17
2732.39	7251.56
2733.26	7245.81
2734.14	7241.24
2735.02	7237.22
2735.89	7233.2
2736.77	7227.78
2737.65	7222.03
2738.52	7215.7
2739.4	7208.46
2740.28	7200.6
2741.15	7192.03
2742.03	7182.6
2742.9	7172.96
2743.78	7162.89
2744.65	7154.89
2745.53	7157.54
2746.41	7167.56
2747.28	7172.07
2748.16	7173.26
2749.03	7170.68
2749.91	7164.11
2750.78	7153.78
2751.66	7143.47
2752.53	7128.76
2753.4	7112.78
2754.28	7097.58
2755.15	7084.92
2756.02	7074.2
2756.9	7067.9
2757.77	7064.58
2758.65	7063.61
2759.52	7063.02
2760.39	7062.18
2761.27	7058.18
2762.14	7040.61
2763.01	7022
2763.88	7006.95
2764.76	6995.21
2765.63	6990.87
2766.5	7000.38
2767.37	7025.32
2768.25	7018.2
2769.12	7007.41
2769.99	6996.77
2770.86	6985.79
2771.73	6975.36
2772.61	6974.61
2773.48	6980.6
2774.35	6980.58
2775.22	6978.42
2776.09	6974.32
2776.96	6970.92
2777.83	6964.82
2778.7	6934.8
2779.57	6906.98
2780.44	6890.15
2781.31	6902.15
2782.18	6927.96
2783.05	6915.02
2783.92	6911.18
2784.79	6900.57
2785.66	6889.3
2786.53	6877.85
2787.4	6865.8
2788.27	6852.51
2789.14	6839.74
2790.01	6827.55
2790.88	6816.46
2791.75	6807.2
2792.62	6802.86
2793.48	6800.73
2794.35	6801
2795.22	6802.81
2796.09	6808.02
2796.96	6799.61
2797.82	6787.47
2798.69	6773.38
2799.56	6757.29
2800.43	6742.6
2801.29	6729.73
2802.16	6718.17
2803.03	6707.09
2803.9	6697.32
2804.76	6690.3
2805.63	6689.33
2806.5	6693.54
2807.36	6703.15
2808.23	6716.33
2809.09	6718.16
2809.96	6716.08
2810.83	6704.33
2811.69	6691.84
2812.56	6676.56
2813.42	6663.73
2814.29	6651.86
2815.15	6641.27
2816.02	6633.69
2816.88	6626.89
2817.75	6618.69
2818.61	6609.31
2819.48	6596.9
2820.34	6585.61
2821.21	6577.98
2822.07	6582.31
2822.94	6587.47
2823.8	6588.6
2824.66	6582.45
2825.53	6574.01
2826.39	6554.05
2827.26	6530.84
2828.12	6516.3
2828.98	6511.07
2829.85	6515.43
2830.71	6528.26
2831.57	6531.69
2832.43	6536.03
2833.3	6540.07
2834.16	6536.7
2835.02	6526.46
2835.88	6511.61
2836.75	6492.48
2837.61	6477.4
2838.47	6471.78
2839.33	6463.09
2840.19	6464.93
2841.06	6475.86
2841.92	6476.51
2842.78	6470.37
2843.64	6453.73
2844.5	6442.58
2845.36	6425.68
2846.22	6408.97
2847.08	6395.85
2847.94	6389.26
2848.81	6384.7
2849.67	6383.2
2850.53	6384.55
2851.39	6389.3
2852.25	6397.31
2853.11	6409.65
2853.97	6416.69
2854.82	6389.15
2855.68	6368.05
2856.54	6353.68
2857.4	6350.85
2858.26	6378.75
2859.12	6357.93
2859.98	6343.23
2860.84	6331.95
2861.7	6324.3
2862.56	6320.33
2863.41	6315.71
2864.27	6319.45
2865.13	6319
2865.99	6308.91
2866.85	6302.38
2867.7	6290.75
2868.56	6283.14
2869.42	6272.29
2870.28	6264.69
2871.13	6256.41
2871.99	6257.7
2872.85	6263.61
2873.7	6262.36
2874.56	6249.45
2875.42	6239.59
2876.27	6228.25
2877.13	6214.72
2877.99	6210.63
2878.84	6207.91
2879.7	6211.94
2880.56	6220.9
2881.41	6222.51
2882.27	6215.36
2883.12	6204.18
2883.98	6189.01
2884.83	6170.35
2885.69	6148.74
2886.54	6134.83
2887.4	6128.31
2888.25	6127.02
2889.11	6129.02
2889.96	6127.43
2890.82	6130.01
2891.67	6133.92
2892.52	6129.65
2893.38	6123.73
2894.23	6098.76
2895.09	6067.36
2895.94	6046.07
2896.79	6071.41
2897.65	6099.53
2898.5	6097.32
2899.35	6081.99
2900.21	6060.64
2901.06	6046.36
2901.91	6034.35
2902.76	6024.65
2903.62	6017.53
2904.47	6022.86
2905.32	6030.21
2906.17	6040.32
2907.03	6037.03
2907.88	6035.09
2908.73	6022.25
2909.58	6011.53
2910.43	5999.51
2911.28	5988.23
2912.14	5977.64
2912.99	5966.23
2913.84	5955.14
2914.69	5943.89
2915.54	5932.85
2916.39	5922.24
2917.24	5912.7
2918.09	5916.74
2918.94	5916.5
2919.79	5912.06
2920.64	5907.97
2921.49	5903.77
2922.34	5899.75
2923.19	5896.26
2924.04	5892.78
2924.89	5888.94
2925.74	5885.3
2926.59	5879.81
2927.44	5870.12
2928.29	5858.91
2929.14	5847.58
2929.98	5836.13
2930.83	5825.2
2931.68	5815.18
2932.53	5805.85
2933.38	5797.7
2934.23	5790.74
2935.07	5785.81
2935.92	5782.34
2936.77	5780.24
2937.62	5779.44
2938.47	5779.42
2939.31	5779.95
2940.16	5779.81
2941.01	5779.03
2941.85	5768.38
2942.7	5747.14
2943.55	5729.32
2944.39	5710.29
2945.24	5697.22
2946.09	5689.65
2946.93	5682.19
2947.78	5675.53
2948.63	5669.54
2949.47	5665.85
2950.32	5663.35
2951.16	5662.54
2952.01	5663.21
2952.85	5664.74
2953.7	5667.73
2954.55	5668.1
2955.39	5665.65
2956.24	5657.35
2957.08	5647.49
2957.92	5636.54
2958.77	5624.98
2959.61	5613.25
2960.46	5602.32
2961.3	5592.82
2962.15	5584.96
2962.99	5578.27
2963.83	5573.09
2964.68	5570.04
2965.52	5568.95
2966.37	5569.05
2967.21	5569.37
2968.05	5567.83
2968.9	5564.71
2969.74	5559.3
2970.58	5552.27
2971.42	5563.22
2972.27	5566.72
2973.11	5560.98
2973.95	5547.23
2974.79	5532.45
2975.64	5522.1
2976.48	5512.69
2977.32	5504.49
2978.16	5499.76
2979	5495.83
2979.85	5495.14
2980.69	5495.85
2981.53	5495.84
2982.37	5495.19
2983.21	5492.19
2984.05	5489.4
2984.89	5486.2
2985.73	5482.3
2986.57	5477.6
2987.41	5472.27
2988.25	5464.02
2989.1	5454.12
2989.94	5443.33
2990.77	5434.21
2991.62	5426.33
2992.45	5418.48
2993.29	5411.66
2994.13	5405.66
2994.97	5400.62
2995.81	5397.09
2996.65	5395.09
2997.49	5396.4
2998.33	5370.05
2999.17	5424.03
