200.833	17252.4
202.102	17286.8
203.371	17292.5
204.639	17282.3
205.907	17275.3
207.175	17276.1
208.442	17285
209.71	17296.7
210.977	17310.9
212.244	17327.2
213.511	17345.8
214.777	17366.5
216.042	17389.1
217.309	17413.2
218.575	17438
219.84	17464.9
221.106	17493.4
222.371	17528.9
223.635	17566.9
224.9	17606.2
226.165	17644.8
227.429	17681.6
228.694	17717.5
229.956	17751.4
231.22	17786.2
232.484	17819.9
233.747	17852.7
235.011	17884.4
236.272	17915.5
237.535	17945.6
238.798	17962.9
240.06	17963.9
241.321	17970.6
242.583	17978.2
243.845	18005.8
245.105	18027.5
246.367	18054.1
247.628	18082.9
248.888	18116.6
250.149	18147
251.409	18158.8
252.67	18159
253.928	18149.4
255.189	18141.9
256.447	18146.7
257.707	18153.6
258.966	18172.9
260.224	18208.1
261.483	18242.6
262.742	18270.9
263.999	18285.5
265.257	18289.6
266.514	18299.1
267.772	18310.2
269.028	18324.4
270.286	18339.9
271.543	18360.2
272.799	18380.1
274.056	18402.9
275.311	18417.5
276.568	18430
277.823	18449.7
279.079	18470
280.333	18490.9
281.589	18511.6
282.843	18534.3
284.099	18552.2
285.352	18560.6
286.607	18579.8
287.86	18598.3
289.114	18637.2
290.368	18670.1
291.621	18696.1
292.875	18713.9
294.127	18728.2
295.38	18746.4
296.632	18763.4
297.884	18778.6
299.137	18792.1
300.388	18802.9
301.641	18812.7
302.891	18787.2
304.142	18781.3
305.394	18811.4
306.644	18863
307.894	18899.1
309.146	18890
310.395	18834.7
311.645	18849.7
312.895	18882.7
314.144	18921.7
315.393	18936.4
316.642	18915.7
317.892	18906.4
319.14	18908.9
320.388	18923.5
321.637	18964.8
322.885	18996.1
324.132	19022.8
325.38	19037.9
326.628	19051.2
327.875	19051.8
329.122	19045.6
330.368	19048.9
331.614	19065.9
332.862	19084.4
334.108	19106.2
335.353	19128.5
336.599	19157.1
337.844	19162.5
339.089	19158.4
340.335	19158.5
341.58	19164.1
342.824	19181.2
344.068	19204.3
345.312	19237
346.556	19267.4
347.8	19287.8
349.043	19300.2
350.286	19302.6
351.53	19293.6
352.774	19282.3
354.016	19275.1
355.259	19293.5
356.501	19316.4
357.743	19335.2
358.985	19345.3
360.227	19352.5
361.468	19336.1
362.709	19327
363.95	19298.5
365.191	19282.6
366.432	19274.5
367.672	19284
368.912	19293.2
370.152	19301.8
371.392	19312.7
372.632	19325.8
373.871	19339.9
375.11	19355.4
376.348	19372.8
377.587	19391.5
378.825	19411.6
380.064	19432.6
381.302	19449.6
382.54	19461.7
383.778	19470
385.016	19478.7
386.253	19487.1
387.489	19496.2
388.726	19506.4
389.963	19517.4
391.199	19528.8
392.436	19541.5
393.672	19555
394.907	19570.5
396.142	19587.9
397.378	19608.6
398.614	19623.9
399.849	19630.9
401.082	19630
402.317	19616.6
403.552	19599.1
404.786	19596
406.019	19614.3
407.253	19621.9
408.487	19634.9
409.721	19643.6
410.953	19645.5
412.186	19651.1
413.419	19658.4
414.651	19668.4
415.883	19683.7
417.116	19714.6
418.347	19724.8
419.579	19742.1
420.811	19745.1
422.041	19734.8
423.272	19722.9
424.504	19727
425.733	19736.6
426.964	19745.6
428.194	19761.5
429.424	19764.3
430.654	19766.1
431.883	19770.6
433.113	19766.3
434.341	19772.4
435.571	19788.8
436.799	19800.8
438.028	19810.2
439.257	19816.9
440.484	19821.9
441.713	19826.4
442.94	19831
444.168	19836
445.394	19840.4
446.622	19848.3
447.848	19856.3
449.076	19867.4
450.301	19878
451.528	19884.1
452.754	19887.9
453.979	19890.3
455.205	19893.6
456.43	19896.2
457.656	19897.5
458.88	19898.5
460.106	19899.5
461.33	19901.7
462.554	19905.3
463.779	19910.7
465.002	19924.3
466.225	19935.8
467.45	19952.2
468.672	19951.4
469.895	19947.4
471.119	19939.9
472.341	19929.5
473.563	19916.4
474.786	19904.9
476.008	19892.4
477.229	19878.9
478.452	19863.2
479.673	19846.4
480.894	19828.4
482.115	19810.1
483.337	19796.7
484.557	19808.6
485.777	19830.4
486.997	19848.9
488.218	19863.8
489.438	19888.4
490.657	19901.1
491.876	19884.8
493.096	19866.7
494.315	19849.9
495.533	19835.2
496.752	19825.4
497.97	19817.9
499.188	19813.6
500.407	19813.3
501.625	19815.9
502.842	19822.5
504.059	19833
505.276	19846.7
506.493	19860.7
507.71	19861.2
508.926	19864.4
510.142	19858.6
511.358	19844.9
512.575	19849.7
513.791	19858.4
515.006	19890
516.222	19920.3
517.437	19939.6
518.651	19954.9
519.866	19968.4
521.081	19979.6
522.295	19987.9
523.509	19993.8
524.723	19997.3
525.937	19999
527.15	19999.6
528.363	19999.2
529.576	19999.8
530.789	20000.4
532.002	20003.1
533.215	20010.6
534.426	20023.1
535.638	20040.6
536.85	20048.6
538.061	20055.7
539.273	20061.4
540.484	20063.2
541.695	20064.3
542.906	20062.5
544.117	20059.9
545.327	20057.7
546.537	20055.4
547.747	20054.3
548.957	20057.7
550.167	20065.3
551.377	20074.8
552.585	20083.3
553.794	20090
555.003	20092.7
556.212	20090.6
557.421	20084.4
558.628	20074.5
559.836	20059.9
561.044	20046.4
562.252	20034.9
563.458	20025.9
564.666	20020.8
565.873	20018.4
567.08	20018.8
568.286	20021.1
569.493	20026.3
570.699	20032.6
571.904	20037.6
573.111	20042.3
574.317	20045.2
575.521	20045.3
576.727	20046.8
577.932	20048.5
579.136	20049.5
580.341	20051.2
581.544	20055.3
582.749	20062.1
583.954	20072.5
585.156	20090.9
586.361	20106.4
587.563	20112.9
588.767	20110.1
589.97	20098.1
591.172	20071.7
592.375	20049
593.577	20036.1
594.78	20029.5
595.981	20030.2
597.183	20036.9
598.384	20046.4
599.586	20059
600.786	20046.2
601.988	20025.3
603.188	19911.6
604.389	19954.4
605.589	20038.7
606.79	20093.1
607.989	20120.5
609.188	20119.1
610.389	20099
611.587	20034.8
612.787	19951.2
613.986	19884.6
615.184	19837.5
616.383	19871.6
617.581	19888.4
618.78	19908.4
619.977	19899.4
621.174	19887
622.373	19870.6
623.57	19855.9
624.766	19827.9
625.964	19802.9
627.16	19784.1
628.356	19771.7
629.554	19787.2
630.749	19809.2
631.945	19821
633.14	19821
634.337	19813.3
635.532	19782.4
636.726	19745.6
637.921	19709.7
639.117	19674.5
640.311	19649.6
641.505	19636.8
642.699	19658.1
643.892	19683.1
645.087	19709.3
646.28	19735
647.473	19752.8
648.666	19779.8
649.859	19781
651.051	19766.4
652.245	19733.3
653.437	19709.2
654.629	19696.9
655.821	19721.8
657.012	19733.3
658.204	19749.3
659.395	19771.9
660.586	19800.9
661.777	19810.5
662.967	19805.8
664.158	19794.1
665.349	19792.2
666.539	19780.7
667.729	19772.8
668.919	19775.6
670.109	19787.9
671.298	19808.3
672.487	19826.8
673.676	19835.7
674.865	19857.5
676.053	19646.5
677.242	19705.2
678.43	19744.1
679.616	19778.8
680.804	19803
681.992	19815.1
683.179	19817.4
684.366	19811.8
685.554	19797.7
686.74	19775.4
687.927	19745.9
689.114	19713.1
690.3	19696
691.486	19684.7
692.671	19683.1
693.856	19686.3
695.042	19703.1
696.227	19700
697.413	19675.5
698.598	19657.1
699.781	19641.9
700.966	19629.2
702.15	19617.8
703.334	19605.5
704.518	19593.4
705.701	19583.3
706.885	19571.3
708.068	19551.5
709.252	19543.2
710.433	19545.9
711.616	19569.1
712.799	19578.8
713.98	19582.1
715.163	19585.5
716.345	19583.6
717.527	19579.1
718.707	19567.8
719.889	19550.7
721.071	19524.2
722.25	19491.5
723.432	19472.4
724.611	19465
725.792	19459
726.972	19493.6
728.151	19539.4
729.332	19586.1
730.512	19588.4
731.69	19572.4
732.87	19544.2
734.048	19568.4
735.227	19623.1
736.405	19665.9
737.584	19594.8
738.761	19578.1
739.94	19553.1
741.117	19574.8
742.295	19595.2
743.471	19615.1
744.649	19635.3
745.825	19656.6
747.003	19662.8
748.179	19642.9
749.356	19624.3
750.531	19601.9
751.708	19580.6
752.883	19573.2
754.059	19579.5
755.234	19600.7
756.409	19633.3
757.585	19656.7
758.759	19670.6
759.934	19673.7
761.108	19658
762.282	19639.3
763.456	19621.9
764.63	19602.7
765.803	19582.1
766.977	19563
768.15	19547.5
769.323	19534.5
770.496	19523
771.668	19513.9
772.841	19507.1
774.014	19503
775.185	19501.7
776.357	19515.2
777.528	19522.6
778.701	19511.8
779.872	19480.6
781.042	19459.7
782.213	19436
783.383	19402.8
784.555	19379
785.725	19362.1
786.895	19351.6
788.064	19359.5
789.234	19356.6
790.404	19348.9
791.573	19340.7
792.742	19328.9
793.911	19305.3
795.08	19272.9
796.248	19237.1
797.416	19220.3
798.584	19221.9
799.753	19255.2
800.921	19290.6
802.088	19322
803.256	19354.2
804.423	19376.6
805.59	19381.9
806.756	19371.4
807.923	19341.4
809.089	19305.3
810.256	19271.8
811.422	19256.3
812.587	19264.3
813.753	19292.7
814.918	19308.9
816.084	19312.4
817.249	19302.9
818.414	19302.6
819.578	19303.4
820.743	19304.2
821.907	19305.5
823.072	19306.8
824.236	19308.5
825.399	19311
826.562	19314.2
827.725	19317.5
828.889	19321.3
830.052	19346
831.215	19370.8
832.377	19373.1
833.54	19362.4
834.701	19351.2
835.863	19338.5
837.025	19332.2
838.187	19327.2
839.349	19324.6
840.51	19326
841.67	19329.8
842.831	19337
843.992	19343.9
845.153	19323.7
846.312	19299.8
847.473	19282.4
848.633	19265.6
849.793	19249.5
850.951	19235.9
852.111	19225.6
853.27	19217.1
854.428	19211.7
855.588	19204.8
856.747	19191.2
857.904	19166.5
859.063	19150.7
860.221	19136.2
861.378	19129.8
862.536	19128.3
863.694	19130.5
864.85	19135.7
866.008	19144.9
867.164	19103.1
868.321	19048.6
869.478	19020
870.633	18997.1
871.79	18978.8
872.945	18966.8
874.101	18982.4
875.256	18981.1
876.412	18986.3
877.566	18982.2
878.722	18948.6
879.876	18920.7
881.031	18900.2
882.185	18884.1
883.34	18872
884.493	18870.5
885.647	18866.1
886.8	18863
887.954	18861.7
889.107	18856.5
890.261	18848.2
891.413	18840.3
892.565	18834.1
893.718	18828.3
894.87	18840
896.023	18869.3
897.174	18873.5
898.326	18864.2
899.478	18804
900.629	18760.4
901.779	18769.9
902.931	18763.8
904.081	18773.8
905.231	18780.6
906.383	18787.9
907.532	18780
908.682	18775.2
909.831	18795.6
910.982	18819.3
912.131	18845.3
913.28	18868.9
914.429	18887.6
915.578	18898.2
916.727	18901
917.875	18895
919.023	18879.6
920.171	18855
921.32	18825.5
922.467	18811.3
923.614	18797.4
924.761	18796.9
925.908	18804.8
927.055	18819.9
928.203	18834.7
929.349	18842.6
930.496	18843.9
931.642	18842.3
932.787	18840.8
933.933	18837.9
935.079	18834.4
936.224	18833.2
937.369	18832
938.514	18829.7
939.659	18829.2
940.804	18822.3
941.948	18796.7
943.092	18775.9
944.236	18751.1
945.38	18723.3
946.524	18689.6
947.667	18675.9
948.811	18675.9
949.954	18673.5
951.097	18658.6
952.24	18640.4
953.383	18616.7
954.525	18610.3
955.667	18611.4
956.81	18614.5
957.952	18612.5
959.093	18610.2
960.235	18609.1
961.376	18605.3
962.516	18600.2
963.658	18591.8
964.798	18579.9
965.939	18561.6
967.08	18534.1
968.22	18518.1
969.359	18517.5
970.499	18523.6
971.639	18533.5
972.779	18540.3
973.918	18525.4
975.056	18506.9
976.195	18476.5
977.334	18466.5
978.473	18460.6
979.61	18464.8
980.749	18477.8
981.887	18497
983.024	18527.7
984.162	18550.3
985.3	18533.8
986.437	18522.8
987.573	18513.3
988.711	18505.8
989.848	18501.7
990.983	18501.8
992.12	18504.8
993.255	18510.4
994.392	18518.1
995.528	18527.2
996.662	18529.8
997.798	18524.6
998.933	18517.9
1000.07	18508.9
1001.2	18497.4
1002.34	18482.9
1003.47	18470.3
1004.61	18466.3
1005.74	18464.7
1006.87	18466
1008.01	18467.9
1009.14	18482.4
1010.27	18518
1011.41	18498.3
1012.54	18463.8
1013.67	18409.2
1014.81	18399.9
1015.94	18427.4
1017.07	18430.2
1018.2	18431.3
1019.33	18432
1020.47	18436.1
1021.6	18439
1022.73	18439.2
1023.86	18436.7
1024.99	18430.2
1026.12	18421.3
1027.25	18407.6
1028.38	18391.7
1029.51	18373.6
1030.64	18353.6
1031.77	18332.4
1032.9	18313.9
1034.03	18301.2
1035.16	18294
1036.29	18290.5
1037.42	18278.7
1038.55	18264.3
1039.67	18252.6
1040.8	18237.8
1041.93	18223.2
1043.06	18205.4
1044.19	18182.7
1045.31	18145
1046.44	18107.4
1047.57	18085.4
1048.69	18074.4
1049.82	18154
1050.95	18149
1052.08	18135.5
1053.2	18118.4
1054.33	18098.2
1055.45	18075.2
1056.58	18052.8
1057.7	18040.1
1058.83	18036.7
1059.95	18049.4
1061.08	18049.3
1062.2	18041
1063.33	18018.7
1064.45	17959.4
1065.58	17956.9
1066.7	17981.5
1067.83	18008.9
1068.95	18019.7
1070.07	18030.2
1071.2	18038.2
1072.32	18039.5
1073.44	18036.2
1074.56	18026.9
1075.69	18013.3
1076.81	17994.8
1077.93	17975.9
1079.05	17955.6
1080.17	17952.3
1081.3	17963.4
1082.42	17971.4
1083.54	17977.8
1084.66	17984.4
1085.78	17993.3
1086.9	18003.8
1088.02	18006.3
1089.14	18003.3
1090.26	17991.6
1091.38	17989.2
1092.5	17989.2
1093.62	17993.5
1094.74	18001.5
1095.86	18004.6
1096.98	18001.9
1098.1	17994
1099.22	17979.9
1100.34	17960.8
1101.45	17937
1102.57	17908.9
1103.69	17897.9
1104.81	17912.2
1105.93	17919.4
1107.04	17935.8
1108.16	17943.7
1109.28	17949.4
1110.4	17946.3
1111.51	17928.8
1112.63	17902
1113.75	17872.8
1114.86	17857.9
1115.98	17844.3
1117.09	17831.7
1118.21	17821.2
1119.32	17812.7
1120.44	17804.5
1121.55	17788.1
1122.67	17754.8
1123.78	17726.9
1124.9	17700.5
1126.01	17676.3
1127.13	17653.5
1128.24	17632.5
1129.35	17643.4
1130.47	17648.1
1131.58	17645
1132.7	17634
1133.81	17617.5
1134.92	17605.6
1136.03	17583.9
1137.15	17554.1
1138.26	17517
1139.37	17461.9
1140.48	17421.6
1141.59	17394.2
1142.71	17378
1143.82	17388.6
1144.93	17400.7
1146.04	17404
1147.15	17399.2
1148.26	17391.5
1149.37	17341
1150.48	17325.6
1151.59	17313.9
1152.7	17309.2
1153.81	17312.6
1154.92	17324.8
1156.03	17319.6
1157.14	17313.3
1158.25	17305.4
1159.36	17294.3
1160.47	17263.2
1161.58	17266.6
1162.68	17281.8
1163.79	17295.5
1164.9	17297.8
1166.01	17289.6
1167.12	17267.3
1168.22	17239
1169.33	17230
1170.44	17225.8
1171.55	17224.9
1172.65	17231.3
1173.76	17249.9
1174.87	17277.3
1175.97	17276.6
1177.08	17270.7
1178.18	17262
1179.29	17248.2
1180.4	17223.3
1181.5	17208.3
1182.61	17208.2
1183.71	17219.8
1184.82	17234.9
1185.92	17256.6
1187.02	17282.9
1188.13	17292.9
1189.23	17290.8
1190.34	17294.1
1191.44	17279.6
1192.54	17267
1193.65	17256.4
1194.75	17244.6
1195.85	17245.9
1196.96	17252.9
1198.06	17260.3
1199.16	17266.4
1200.26	17272.3
1201.37	17277.5
1202.47	17281.1
1203.57	17282.2
1204.67	17269.9
1205.77	17251.2
1206.87	17230
1207.97	17210.9
1209.08	17191.3
1210.18	17165.4
1211.28	17138.6
1212.38	17117.1
1213.48	17108.4
1214.58	17137.4
1215.68	17163.3
1216.78	17154.3
1217.88	17145.4
1218.98	17139.7
1220.07	17137
1221.17	17137.9
1222.27	17143.3
1223.37	17169.5
1224.47	17156
1225.57	17143.7
1226.66	17132.2
1227.76	17120.6
1228.86	17111.3
1229.96	17109.8
1231.06	17103.7
1232.15	17093.6
1233.25	17077.8
1234.35	17055.9
1235.44	17023.5
1236.54	16994.6
1237.63	16974.5
1238.73	16962.1
1239.83	16960.9
1240.92	16961.4
1242.02	16962.3
1243.11	16964.5
1244.21	16969
1245.3	16974.4
1246.4	16963.7
1247.49	16955
1248.59	16945.1
1249.68	16937.5
1250.78	16935.5
1251.87	16921.9
1252.96	16897.2
1254.06	16862
1255.15	16830.4
1256.24	16799.9
1257.34	16770.5
1258.43	16768.1
1259.52	16802.8
1260.62	16826.1
1261.71	16835.1
1262.8	16831.5
1263.89	16814.7
1264.98	16785.9
1266.08	16791.4
1267.17	16789
1268.26	16787.8
1269.35	16788.9
1270.44	16792.5
1271.53	16799.1
1272.62	16808.1
1273.71	16795
1274.8	16789.4
1275.89	16795.3
1276.98	16810.5
1278.07	16845
1279.16	16852.7
1280.25	16851.8
1281.34	16857.3
1282.43	16838.1
1283.52	16823.5
1284.61	16817.7
1285.69	16818.1
1286.78	16823.9
1287.87	16848.2
1288.96	16844.9
1290.05	16818.3
1291.13	16801.7
1292.22	16792.7
1293.31	16791.3
1294.4	16808.5
1295.48	16821.8
1296.57	16831.4
1297.66	16838.6
1298.74	16849.3
1299.83	16840.6
1300.92	16821.8
1302	16802.1
1303.09	16797.9
1304.17	16802.4
1305.26	16816.2
1306.34	16810
1307.43	16798.7
1308.51	16769.1
1309.6	16751.7
1310.68	16739
1311.76	16731.5
1312.85	16728.2
1313.93	16728.8
1315.02	16735.8
1316.1	16741.5
1317.18	16740
1318.27	16725.3
1319.35	16716.8
1320.43	16711.8
1321.52	16706.3
1322.6	16701.8
1323.68	16701.7
1324.76	16698
1325.85	16689.9
1326.93	16673.3
1328.01	16656.7
1329.09	16644.4
1330.17	16635.4
1331.25	16626.4
1332.33	16617.7
1333.41	16611.4
1334.49	16606.6
1335.58	16595.9
1336.65	16585.3
1337.74	16580.3
1338.82	16581.4
1339.89	16583.8
1340.97	16568.3
1342.05	16546.8
1343.13	16521.2
1344.21	16504.7
1345.29	16490.6
1346.37	16481.6
1347.45	16478.8
1348.53	16477.3
1349.6	16479.8
1350.68	16484.2
1351.76	16489.8
1352.84	16494.8
1353.92	16498.2
1354.99	16500.6
1356.07	16503.6
1357.15	16505.7
1358.22	16506.9
1359.3	16503.6
1360.38	16501.4
1361.45	16498.2
1362.53	16493.4
1363.61	16483.6
1364.68	16473.8
1365.76	16464.3
1366.83	16452.8
1367.91	16464.2
1368.98	16469
1370.06	16468
1371.13	16460.6
1372.21	16439.8
1373.28	16420.5
1374.35	16408.9
1375.43	16424.7
1376.5	16440.7
1377.58	16448.8
1378.65	16454.2
1379.72	16442.3
1380.8	16436.1
1381.87	16429
1382.94	16411.3
1384.01	16405.3
1385.09	16405.9
1386.16	16434.7
1387.23	16470
1388.3	16461.3
1389.38	16432.8
1390.45	16386.6
1391.52	16360.5
1392.59	16348.3
1393.66	16337.3
1393.92	16334
1395	16326
1396.07	16320.2
1397.15	16315
1398.22	16309
1399.3	16303.7
1400.38	16299.2
1401.45	16295.2
1402.53	16291.9
1403.6	16289.2
1404.68	16289.2
1405.75	16288.6
1406.82	16285
1407.9	16273.8
1408.97	16248.2
1410.05	16228.8
1411.12	16214.4
1412.19	16198.3
1413.27	16189.4
1414.34	16185.1
1415.41	16184.1
1416.49	16185.8
1417.56	16188.6
1418.63	16192.2
1419.7	16190.3
1420.78	16189.9
1421.85	16189
1422.92	16186.8
1423.99	16183.5
1425.06	16152.9
1426.14	16109.4
1427.21	16068.7
1428.28	16050.1
1429.35	16057.6
1430.42	16064.4
1431.49	16075.9
1432.56	16090.6
1433.63	16113.8
1434.7	16134.4
1435.77	16137.7
1436.84	16121.9
1437.91	16103.8
1438.98	16082.5
1440.05	16059.1
1441.12	16028.7
1442.18	16015.8
1443.25	16011.8
1444.32	16011.1
1445.39	16014
1446.46	16016
1447.53	16017.5
1448.59	16018.3
1449.66	16018.2
1450.73	16018.2
1451.8	16017
1452.86	16011.9
1453.93	16004.3
1455	15994.6
1456.06	15985.2
1457.13	15989.3
1458.2	16007.4
1459.26	16003.2
1460.33	15993.7
1461.39	15981.4
1462.46	15973
1463.52	15974.5
1464.59	15978.6
1465.65	15984.8
1466.72	15993.4
1467.78	16003.5
1468.85	16008.3
1469.91	15994.8
1470.98	15974.4
1472.04	15949.8
1473.1	15927.1
1474.17	15906.5
1475.23	15889.7
1476.3	15888.6
1477.36	15904.3
1478.42	15919
1479.48	15937.4
1480.55	15950.5
1481.61	15960.1
1482.67	15966
1483.73	15949.5
1484.8	15928.1
1485.86	15897.2
1486.92	15874.3
1487.98	15857.7
1489.04	15848.6
1490.1	15843
1491.17	15841
1492.23	15841.1
1493.29	15840.8
1494.35	15841.9
1495.41	15844.1
1496.47	15847
1497.53	15850.5
1498.59	15852.8
1499.65	15850
1500.71	15827.9
1501.77	15806.2
1502.83	15773.8
1503.88	15745.1
1504.94	15719.9
1506	15702.7
1507.06	15692.2
1508.12	15689.4
1509.18	15702.1
1510.23	15708.4
1511.29	15704.9
1512.35	15697.9
1513.41	15689.9
1514.47	15683.8
1515.52	15677.4
1516.58	15671.4
1517.64	15665.7
1518.69	15660.1
1519.75	15654.9
1520.81	15649.9
1521.86	15645.4
1522.92	15641.2
1523.97	15639.4
1525.03	15646.6
1526.08	15653.2
1527.14	15650.7
1528.2	15639.2
1529.25	15622.4
1530.31	15539.8
1531.36	15551.4
1532.42	15557.5
1533.47	15549.5
1534.52	15544.7
1535.58	15540.3
1536.63	15535.1
1537.69	15528.7
1538.74	15518.1
1539.79	15507
1540.84	15493.7
1541.9	15483.1
1542.95	15490.3
1544	15491.9
1545.06	15490.3
1546.11	15485.4
1547.16	15476.9
1548.21	15465.6
1549.27	15456.5
1550.32	15446.2
1551.37	15449.2
1552.42	15459.5
1553.47	15463.7
1554.52	15457.5
1555.57	15449.7
1556.62	15444.8
1557.67	15440
1558.72	15433.5
1559.77	15427.4
1560.82	15429.5
1561.87	15450.2
1562.92	15464.9
1563.97	15472.9
1565.02	15474
1566.07	15468.1
1567.12	15455.2
1568.17	15435.3
1569.22	15407.9
1570.27	15392.8
1571.32	15385.6
1572.36	15383.7
1573.41	15387.8
1574.46	15397.4
1575.51	15415.7
1576.56	15411.7
1577.6	15397.2
1578.65	15379.8
1579.7	15360.7
1580.74	15347.5
1581.79	15349.8
1582.84	15353.9
1583.88	15358.6
1584.93	15358.9
1585.98	15352.2
1587.02	15345.7
1588.07	15343.6
1589.11	15341.9
1590.16	15340.9
1591.2	15340.1
1592.25	15338.6
1593.29	15336.7
1594.34	15313.4
1595.38	15294.7
1596.43	15274.7
1597.47	15258.5
1598.52	15246.4
1599.56	15240.2
1600.6	15248.4
1601.65	15245.7
1602.69	15239.8
1603.73	15222.1
1604.78	15205.1
1605.82	15184.7
1606.86	15166.5
1607.91	15151.4
1608.95	15137.8
1609.99	15125.4
1611.03	15114.6
1612.08	15105.2
1613.12	15096.9
1614.16	15089.2
1615.2	15081.2
1616.24	15071.3
1617.28	15059.5
1618.32	15044.9
1619.36	15026.9
1620.41	15006.6
1621.45	14985
1622.49	14966.6
1623.53	14955.5
1624.57	14958.8
1625.61	14950.3
1626.65	14947
1627.69	14931.9
1628.73	14915.9
1629.76	14894.6
1630.8	14871.1
1631.84	14865.7
1632.88	14867.8
1633.92	14863.4
1634.96	14860.4
1636	14857.1
1637.03	14853.7
1638.07	14851.5
1639.11	14849.5
1640.15	14848.8
1641.19	14843.1
1642.22	14822.1
1643.26	14812.8
1644.3	14802.6
1645.33	14793.8
1646.37	14785.6
1647.41	14777.8
1648.44	14770.6
1649.48	14764.4
1650.52	14759.5
1651.55	14746.1
1652.59	14720.1
1653.62	14713
1654.66	14712
1655.69	14718.1
1656.73	14728.8
1657.76	14709.5
1658.8	14680.3
1659.83	14657.5
1660.87	14632.8
1661.9	14621.7
1662.93	14615.2
1663.97	14615.7
1665	14622.5
1666.04	14626
1667.07	14627.4
1668.1	14626.4
1669.14	14606.6
1670.17	14599.4
1671.2	14586.6
1672.23	14589.5
1673.27	14587.6
1674.3	14596.1
1675.33	14618.3
1676.36	14627.4
1677.39	14625.5
1678.43	14611.6
1679.46	14586.7
1680.49	14563.5
1681.52	14536.5
1682.55	14499.6
1683.58	14487.1
1684.61	14490.8
1685.64	14493.9
1686.67	14495.6
1687.7	14496.5
1688.73	14497
1689.76	14496.9
1690.79	14498.2
1691.82	14498.2
1692.85	14495
1693.88	14488.3
1694.91	14467
1695.94	14445.1
1696.97	14431
1698	14416.2
1699.02	14405.1
1700.05	14395.5
1701.08	14387.5
1702.11	14380.1
1703.14	14374
1704.16	14360.5
1705.19	14352.4
1706.22	14349.3
1707.25	14350.3
1708.27	14352.5
1709.3	14354.8
1710.33	14348.3
1711.35	14337.4
1712.38	14307.6
1713.41	14288.6
1714.43	14270.4
1715.46	14254.2
1716.48	14241
1717.51	14230.5
1718.53	14222.3
1719.56	14216.7
1720.58	14213.6
1721.61	14212.9
1722.63	14215
1723.66	14218.9
1724.68	14217.9
1725.71	14205.2
1726.73	14182.6
1727.75	14157.4
1728.78	14129.8
1729.8	14106.4
1730.83	14095.6
1731.85	14085.4
1732.87	14077.3
1733.89	14067.6
1734.92	14057.7
1735.94	14047.9
1736.96	14043.2
1737.98	14039.5
1739.01	14036.5
1740.03	14034.4
1741.05	14031.2
1742.07	14026
1743.09	14015
1744.12	14004.7
1745.14	13994
1746.16	13981.3
1747.18	13967.4
1748.2	13953.9
1749.22	13941.4
1750.24	13931.7
1751.26	13924.4
1752.28	13920.9
1753.3	13918.7
1754.32	13918
1755.34	13914.5
1756.36	13909.6
1757.38	13905.1
1758.4	13901.1
1759.42	13889.6
1760.44	13871.3
1761.45	13852.6
1762.47	13833.2
1763.49	13824
1764.51	13818.6
1765.53	13814.9
1766.55	13812
1767.56	13812.9
1768.58	13814.9
1769.6	13811.4
1770.61	13803.8
1771.63	13792.5
1772.65	13789.7
1773.67	13795.5
1774.68	13792.4
1775.7	13777.5
1776.72	13767.8
1777.73	13763
1778.75	13757.4
1779.76	13749.9
1780.78	13738.7
1781.79	13725.3
1782.81	13710.1
1783.83	13692.5
1784.84	13672.8
1785.85	13650.3
1786.87	13626.8
1787.88	13608.4
1788.9	13596.5
1789.91	13591.2
1790.93	13590.9
1791.94	13594.3
1792.95	13598.8
1793.97	13601.4
1794.98	13594.3
1796	13587.1
1797.01	13577
1798.02	13564.3
1799.03	13549.2
1800.05	13532.6
1801.06	13520.9
1802.07	13522
1803.08	13523.4
1804.1	13523.2
1805.11	13520.1
1806.12	13517.4
1807.13	13492.7
1808.14	13459.8
1809.15	13436.9
1810.17	13416.2
1811.18	13399.1
1812.19	13385.8
1813.2	13376.8
1814.21	13371.7
1815.22	13370.1
1816.23	13372.2
1817.24	13371.2
1818.25	13342.1
1819.26	13319.6
1820.27	13299.6
1821.28	13282.1
1822.29	13270.2
1823.3	13262
1824.3	13257.6
1825.31	13258.5
1826.32	13260.9
1827.33	13262.9
1828.34	13254.5
1829.35	13243.3
1830.35	13228.7
1831.36	13209.5
1832.37	13185.3
1833.38	13156.6
1834.38	13122
1835.39	13084.1
1836.4	13074.5
1837.41	13090.1
1838.41	13098.8
1839.42	13114.7
1840.43	13128.8
1841.43	13116.6
1842.44	13100.6
1843.44	13081.6
1844.45	13060.2
1845.46	13034.8
1846.46	12995.7
1847.47	12970.8
1848.47	12966.7
1849.48	12975.1
1850.48	12973.8
1851.49	12969.3
1852.49	12962.7
1853.49	12954.6
1854.5	12944.8
1855.5	12931.9
1856.51	12917.3
1857.51	12900.3
1858.51	12884.5
1859.52	12872.5
1860.52	12865
1861.52	12872.8
1862.53	12866.2
1863.53	12848.7
1864.53	12830.1
1865.54	12808.1
1866.54	12794.6
1867.54	12790.1
1868.54	12796.7
1869.54	12813.3
1870.55	12823.3
1871.55	12826
1872.55	12820.1
1873.55	12800.5
1874.55	12774.3
1875.55	12753.1
1876.55	12743
1877.55	12731.9
1878.55	12725.2
1879.55	12718.1
1880.56	12708.2
1881.55	12693
1882.56	12674
1883.55	12654.3
1884.55	12637.5
1885.55	12624.4
1886.55	12614.1
1887.55	12610.8
1888.55	12614.5
1889.55	12614.9
1890.55	12615.1
1891.55	12615.6
1892.55	12616.9
1893.54	12618.2
1894.54	12619.3
1895.54	12622
1896.54	12621.5
1897.54	12601.8
1898.53	12576.4
1899.53	12555.4
1900.53	12542.8
1901.52	12537.6
1902.52	12557.2
1903.52	12558.8
1904.51	12558.7
1905.51	12555.9
1906.51	12532.3
1907.5	12496.9
1908.5	12457.8
1909.49	12436.4
1910.49	12411.4
1911.49	12398.6
1912.48	12399.4
1913.48	12398.8
1914.47	12397.9
1915.46	12395
1916.46	12382.3
1917.45	12363.3
1918.45	12344.4
1919.44	12325.8
1920.44	12308
1921.43	12292.4
1922.43	12277.7
1923.42	12264.6
1924.41	12252.6
1925.41	12242.1
1926.4	12233.6
1927.39	12228.1
1928.38	12225.5
1929.38	12224.3
1930.37	12223
1931.36	12209.2
1932.35	12188.4
1933.35	12171.6
1934.34	12155.1
1935.33	12147.4
1936.32	12143.2
1937.31	12142.5
1938.3	12133.3
1939.29	12120.2
1940.29	12105.7
1941.28	12082.9
1942.27	12068
1943.26	12060.1
1944.25	12054.6
1945.24	12052.1
1946.23	12053.1
1947.22	12057.5
1948.21	12065.7
1949.2	12066.8
1950.19	12052.5
1951.18	12038.5
1952.17	12015.5
1953.16	11988.6
1954.14	11961.5
1955.13	11939.6
1956.12	11921.6
1957.11	11907.2
1958.1	11896
1959.09	11889
1960.07	11884.7
1961.06	11881.9
1962.05	11874.7
1963.04	11856.6
1964.02	11844.7
1965.01	11834.5
1966	11825.7
1966.99	11817.9
1967.97	11811.6
1968.96	11806.4
1969.95	11802.1
1970.93	11799.2
1971.92	11786
1972.9	11754.6
1973.89	11738.4
1974.88	11725.4
1975.86	11715.6
1976.85	11721.3
1977.83	11731.3
1978.82	11743.9
1979.8	11756
1980.79	11762
1981.77	11753.7
1982.76	11740.5
1983.74	11722.2
1984.72	11697
1985.71	11672.5
1986.69	11659.3
1987.67	11647.7
1988.66	11638.1
1989.64	11626.7
1990.62	11613
1991.61	11598
1992.59	11583.9
1993.57	11570.2
1994.56	11557.9
1995.54	11549.8
1996.52	11541.4
1997.5	11528.5
1998.49	11516.1
1999.47	11505.5
2000.45	11496.9
2001.43	11492.3
2002.41	11488.1
2003.39	11484.3
2004.38	11480
2005.36	11474.2
2006.34	11466.3
2007.32	11456.9
2008.3	11447.1
2009.28	11436.7
2010.26	11426.1
2011.24	11416.8
2012.22	11409.3
2013.2	11401.8
2014.18	11393.2
2015.16	11378.1
2016.14	11355.1
2017.12	11335
2018.1	11314.6
2019.07	11294.4
2020.05	11272.6
2021.03	11278.7
2022.01	11297.2
2022.99	11328.2
2023.97	11281.8
2024.95	11238.3
2025.92	11235.7
2026.9	11236.9
2027.88	11228
2028.86	11223.5
2029.83	11216.7
2030.81	11209.4
2031.79	11201.3
2032.76	11191.7
2033.74	11178.9
2034.72	11164.1
2035.69	11145.4
2036.67	11122.4
2037.65	11100.5
2038.62	11087
2039.6	11072.8
2040.57	11076.3
2041.55	11072.8
2042.52	11057.9
2043.5	11045.4
2044.47	11030.3
2045.45	11010.8
2046.42	10995.4
2047.4	10980.7
2048.37	10966.1
2049.35	10952.7
2050.32	10939.2
2051.29	10926.6
2052.27	10915.8
2053.24	10908.1
2054.21	10900.9
2055.19	10889.1
2056.16	10873.8
2057.13	10854
2058.11	10841.5
2059.08	10830.8
2060.05	10821.2
2061.02	10813.4
2062	10806.9
2062.97	10802
2063.94	10797.5
2064.91	10793.3
2065.89	10789.6
2066.86	10787.1
2067.83	10784.8
2068.8	10775.3
2069.77	10752.6
2070.74	10720.1
2071.71	10705.2
2072.68	10691.7
2073.65	10687.5
2074.62	10687.8
2075.59	10687.6
2076.56	10687.1
2077.53	10681.5
2078.5	10673
2079.47	10664.2
2080.44	10652.7
2081.41	10637.2
2082.38	10616.1
2083.35	10586.7
2084.32	10554.8
2085.29	10519.7
2086.26	10568.4
2087.23	10587.9
2088.19	10571.6
2089.16	10547.2
2090.13	10529.5
2091.1	10515.7
2092.07	10508
2093.03	10503.1
2094	10499.6
2094.97	10491.3
2095.94	10481.4
2096.9	10465.5
2097.87	10442.8
2098.84	10413.8
2099.8	10393.9
2100.77	10388.3
2101.74	10387.4
2102.7	10389.7
2103.67	10388.7
2104.63	10375.4
2105.6	10364.4
2106.56	10353.7
2107.53	10339.3
2108.49	10325.2
2109.46	10308.3
2110.42	10292.6
2111.39	10292.7
2112.35	10295.4
2113.32	10298
2114.28	10294.2
2115.25	10287.7
2116.21	10276.9
2117.17	10263
2118.14	10246.9
2119.1	10228.7
2120.07	10217.1
2121.03	10222.3
2121.99	10219.7
2122.96	10218.5
2123.92	10215.3
2124.88	10205.5
2125.84	10194.5
2126.81	10176.5
2127.77	10154.1
2128.73	10127.6
2129.69	10101.1
2130.65	10096.5
2131.62	10095.8
2132.58	10093.7
2133.54	10088.9
2134.5	10078.8
2135.46	10064.5
2136.42	10045.5
2137.38	10016.2
2138.34	9985.44
2139.3	9968.05
2140.26	9962.42
2141.22	9956.92
2142.18	9949.54
2143.14	9946.97
2144.1	9938.62
2145.06	9929.97
2146.02	9920.26
2146.98	9910.34
2147.94	9897.24
2148.9	9883.83
2149.86	9873.62
2150.82	9867.6
2151.78	9870.37
2152.74	9870.64
2153.69	9866.02
2154.65	9859.93
2155.61	9853.92
2156.57	9842.04
2157.53	9828.95
2158.48	9808.8
2159.44	9786.11
2160.4	9771.6
2161.36	9760.99
2162.31	9755.48
2163.27	9747.03
2164.23	9735.12
2165.18	9725.94
2166.14	9704.18
2167.1	9682.85
2168.05	9665.45
2169.01	9650.96
2169.96	9639.49
2170.92	9630.79
2171.88	9624.46
2172.83	9615.38
2173.79	9598.43
2174.74	9581.69
2175.7	9558.63
2176.65	9537.71
2177.6	9519.18
2178.56	9504.18
2179.51	9489.44
2180.47	9475.63
2181.42	9462.88
2182.38	9450.65
2183.33	9441.53
2184.28	9437.1
2185.24	9431.11
2186.19	9425
2187.14	9418.63
2188.1	9410.63
2189.05	9396.81
2190	9382.41
2190.96	9366.59
2191.91	9351.56
2192.86	9337.46
2193.81	9324.06
2194.76	9311.43
2195.72	9299.61
2196.67	9288.93
2197.62	9280.02
2198.57	9273.12
2199.52	9267.94
2200.47	9267.52
2201.43	9280.59
2202.38	9282.07
2203.33	9288.32
2204.28	9289.26
2205.23	9275.29
2206.18	9245.79
2207.13	9213.43
2208.08	9183.32
2209.03	9159.21
2209.98	9141.35
2210.93	9132.71
2211.88	9130.64
2212.83	9132.72
2213.78	9138.61
2214.73	9143.63
2215.67	9145.35
2216.62	9146.22
2217.57	9144.44
2218.52	9138.45
2219.47	9128.63
2220.42	9117.5
2221.37	9102.72
2222.31	9082.76
2223.26	9056.19
2224.21	9023.41
2225.16	8986.08
2226.1	9018.38
2227.05	9020.79
2228	9024.63
2228.94	9027.96
2229.89	9027.49
2230.84	9024.48
2231.78	9014.98
2232.73	9003.39
2233.68	8991.95
2234.62	8984.36
2235.57	8985.58
2236.51	8985.41
2237.46	8983.56
2238.41	8979.98
2239.35	8974.78
2240.3	8967.81
2241.24	8971.86
2242.19	8967.7
2243.13	8961.37
2244.07	8953.71
2245.02	8939.52
2245.96	8934.66
2246.91	8930.78
2247.85	8926.55
2248.8	8922.4
2249.74	8918
2250.68	8913.53
2251.63	8907.18
2252.57	8901.35
2253.51	8895.3
2254.46	8889.91
2255.4	8893.49
2256.34	8894.15
2257.28	8892.47
2258.23	8890.51
2259.17	8885.09
2260.11	8874.95
2261.05	8861.47
2262	8848.09
2262.94	8837.87
2263.88	8830.37
2264.82	8825.5
2265.76	8822.97
2266.7	8823.38
2267.64	8826.47
2268.58	8833.79
2269.53	8837.23
2270.47	8837.44
2271.41	8834.14
2272.35	8827.33
2273.29	8818.28
2274.23	8805.85
2275.17	8799.29
2276.11	8791.81
2277.05	8790.64
2277.99	8785.72
2278.93	8774.82
2279.86	8764.95
2280.8	8761.33
2281.74	8759.45
2282.68	8757.66
2283.62	8756.83
2284.56	8757.23
2285.5	8757.16
2286.44	8749.94
2287.37	8742.45
2288.31	8730.12
2289.25	8726.35
2290.19	8729.04
2291.12	8749.85
2292.06	8720.45
2293	8705.71
2293.94	8709.66
2294.87	8713.45
2295.81	8713.87
2296.75	8712.08
2297.68	8709.08
2298.62	8704.3
2299.55	8697.78
2300.49	8689.04
2301.43	8678.85
2302.36	8667.13
2303.3	8654.46
2304.23	8643.89
2305.17	8636.88
2306.1	8637.07
2307.04	8639.72
2307.98	8640.13
2308.91	8637.15
2309.84	8632.09
2310.78	8611.56
2311.71	8575.17
2312.65	8542.48
2313.58	8528.03
2314.52	8537.29
2315.45	8541.29
2316.38	8535.86
2317.32	8530.41
2317.72	8528.06
2318.66	8522.62
2319.6	8515.2
2320.54	8505.85
2321.48	8494.2
2322.41	8483.16
2323.35	8475.49
2324.29	8470.04
2325.23	8467.68
2326.16	8468.97
2327.1	8465.47
2328.04	8452.1
2328.97	8438.43
2329.91	8426.81
2330.85	8415.79
2331.78	8405.46
2332.72	8396.64
2333.66	8388.79
2334.59	8382.27
2335.53	8376.78
2336.46	8372.37
2337.4	8368.61
2338.33	8365.22
2339.27	8362.49
2340.2	8352.83
2341.14	8339.24
2342.07	8328.17
2343.01	8320.04
2343.94	8312.25
2344.88	8306.23
2345.81	8302.07
2346.75	8299.34
2347.68	8298.11
2348.61	8297.68
2349.55	8279.82
2350.48	8260.92
2351.41	8245.52
2352.35	8234.5
2353.28	8237.43
2354.21	8239.63
2355.15	8239.14
2356.08	8240.42
2357.01	8242.93
2357.94	8242.3
2358.88	8240.02
2359.81	8227.5
2360.74	8214.45
2361.67	8213.75
2362.6	8216.62
2363.54	8211.69
2364.47	8204.89
2365.4	8196.26
2366.33	8185.58
2367.26	8170.88
2368.19	8154.3
2369.12	8137.04
2370.05	8118.83
2370.98	8111.73
2371.91	8114.22
2372.84	8113.77
2373.77	8106.21
2374.7	8106.23
2375.63	8107.25
2376.56	8116
2377.49	8135
2378.42	8111.69
2379.35	8091.84
2380.28	8077.4
2381.21	8079.72
2382.14	8096.57
2383.07	8112.51
2384	8080.98
2384.92	8067.19
2385.85	8057.59
2386.78	8048.35
2387.71	8038.34
2388.64	8031.34
2389.56	8025.29
2390.49	8021.54
2391.42	8018.88
2392.35	8017.36
2393.27	8015.43
2394.2	8011.99
2395.13	8007.71
2396.05	8001.54
2396.98	7992.01
2397.91	7985.31
2398.83	7989.81
2399.76	7991.47
2400.69	7992.63
2401.61	7983.15
2402.54	7976.43
2403.46	7973.41
2404.39	7974.1
2405.31	7978.58
2406.24	7975.33
2407.17	7971.73
2408.09	7967.87
2409.01	7963.06
2409.94	7959.91
2410.86	7934.02
2411.79	7897.84
2412.71	7879.67
2413.64	7877.24
2414.56	7906.01
2415.49	7910.67
2416.41	7863.86
2417.33	7838.11
2418.26	7835.47
2419.18	7835.62
2420.1	7836.73
2421.03	7840.54
2421.95	7853.01
2422.87	7854.67
2423.79	7840.23
2424.72	7820.03
2425.64	7802.12
2426.56	7786.54
2427.48	7773.3
2428.41	7761.7
2429.33	7751.7
2430.25	7742.88
2431.17	7735.12
2432.09	7728.64
2433.01	7722.96
2433.93	7717.67
2434.86	7711.6
2435.78	7704.92
2436.7	7697.64
2437.62	7688.74
2438.54	7685.54
2439.46	7647.27
2440.38	7598.28
2441.3	7603.95
2442.22	7615.88
2443.14	7632.83
2444.06	7631.5
2444.98	7622.91
2445.9	7609.59
2446.82	7598.7
2447.73	7597.49
2448.65	7594.5
2449.57	7592.83
2450.49	7594.51
2451.41	7589.94
2452.33	7579.98
2453.25	7564.38
2454.17	7543.88
2455.08	7529.71
2456	7511.84
2456.92	7500.42
2457.84	7494.58
2458.75	7494.32
2459.67	7499.41
2460.59	7509.5
2461.51	7512.02
2462.42	7504.95
2463.34	7476.23
2464.26	7461.27
2465.17	7444.91
2466.09	7438.29
2467	7429.14
2467.92	7425.71
2468.84	7425.32
2469.75	7420.77
2470.67	7409.9
2471.58	7396.24
2472.5	7388.07
2473.42	7379.79
2474.33	7370.91
2475.25	7372.47
2476.16	7359.43
2477.08	7342.75
2477.99	7336.39
2478.9	7335.58
2479.82	7343.26
2480.73	7351.18
2481.65	7352.66
2482.56	7351.99
2483.47	7349.42
2484.39	7341.64
2485.3	7331.97
2486.22	7318.22
2487.13	7302.07
2488.04	7284.33
2488.96	7268.25
2489.87	7271.58
2490.78	7274.81
2491.69	7278.42
2492.61	7281.17
2493.52	7281.54
2494.43	7279.04
2495.34	7269.98
2496.25	7261.95
2497.17	7256.4
2498.08	7263.9
2498.99	7268.38
2499.9	7272.81
2500.81	7272.77
2501.72	7272.31
2502.63	7263.88
2503.55	7247.17
2504.46	7231.82
2505.37	7219.22
2506.28	7209.25
2507.19	7201.52
2508.1	7195.51
2509.01	7192.06
2509.92	7190.93
2510.83	7192.32
2511.74	7196.35
2512.65	7204.09
2513.56	7209.33
2514.47	7192.05
2515.37	7174.44
2516.28	7135.04
2517.19	7121.4
2518.1	7131.86
2519.01	7136.57
2519.92	7139.73
2520.83	7141.29
2521.73	7138.99
2522.64	7130.04
2523.55	7119.17
2524.46	7106.16
2525.37	7091.14
2526.27	7078.92
2527.18	7084.61
2528.09	7087.73
2529	7090.29
2529.9	7092.21
2530.81	7093.35
2531.72	7094.41
2532.62	7083.18
2533.53	7072.78
2534.44	7069.62
2535.34	7067.08
2536.25	7064.59
2537.15	7058.2
2538.06	7050.39
2538.96	7041.11
2539.87	7030.42
2540.78	7018.2
2541.68	7004.35
2542.59	6989.12
2543.49	6990.81
2544.4	7004.09
2545.3	7012.46
2546.21	7013.17
2547.11	7003.06
2548.01	6984.28
2548.92	6970.48
2549.82	6977.05
2550.73	6977.12
2551.63	6974.13
2552.53	6967.84
2553.44	6960.12
2554.34	6933.99
2555.24	6923.64
2556.15	6914.82
2557.05	6909.66
2557.95	6905.86
2558.86	6895.14
2559.76	6883.43
2560.66	6869
2561.56	6853.3
2562.46	6836.21
2563.37	6817.99
2564.27	6807
2565.17	6801.38
2566.07	6815.36
2566.97	6829.89
2567.88	6834.36
2568.78	6837.07
2569.68	6830.15
2570.58	6821.54
2571.48	6811.21
2572.38	6797.7
2573.28	6781.38
2574.18	6758.67
2575.08	6743.62
2575.98	6728.27
2576.88	6717.25
2577.78	6713.83
2578.68	6717.22
2579.58	6723.17
2580.48	6722.1
2581.38	6715.51
2582.28	6702.57
2583.18	6684.73
2584.08	6672.5
2584.98	6667.37
2585.88	6661.28
2586.77	6654.71
2587.67	6649.32
2588.57	6643.08
2589.47	6633.58
2590.37	6622.85
2591.27	6614.4
2592.16	6608.32
2593.06	6603.85
2593.96	6600.45
2594.86	6595.54
2595.75	6590.07
2596.65	6584.45
2597.55	6578.35
2598.45	6572.02
2599.34	6565.45
2600.24	6558.86
2601.13	6552.27
2602.03	6545.76
2602.93	6539.16
2603.82	6532.67
2604.72	6526.61
2605.62	6521.27
2606.51	6518.28
2607.41	6515.3
2608.3	6507.59
2609.2	6492.84
2610.09	6479.02
2610.99	6459.81
2611.88	6442.44
2612.78	6440.34
2613.67	6447.63
2614.57	6456.73
2615.46	6459.72
2616.36	6456.65
2617.25	6448.51
2618.14	6436.15
2619.04	6426.91
2619.93	6421.34
2620.83	6419.41
2621.72	6424.31
2622.61	6426.38
2623.5	6423.92
2624.4	6419.57
2625.29	6413.15
2626.18	6404.75
2627.08	6394.19
2627.97	6381.61
2628.86	6368.54
2629.75	6355.57
2630.65	6340.31
2631.54	6328.1
2632.43	6320.2
2633.32	6316.16
2634.21	6315.67
2635.11	6320.15
2636	6321.15
2636.89	6312.78
2637.78	6307.32
2638.67	6290.26
2639.56	6264.71
2640.45	6240.96
2641.34	6223.62
2642.23	6212.15
2643.12	6206.29
2644.01	6210.59
2644.9	6216.81
2645.79	6225.36
2646.68	6227.4
2647.57	6224.61
2648.46	6219.56
2649.35	6211.88
2650.24	6201.65
2651.13	6189.89
2652.02	6173.86
2652.91	6156.14
2653.8	6139.45
2654.69	6125.68
2655.58	6116.77
2656.46	6114.42
2657.35	6113.87
2658.24	6114.22
2659.13	6115.77
2660.02	6117.52
2660.9	6114.37
2661.79	6110.33
2662.68	6104.94
2663.57	6096.72
2664.45	6089.01
2665.34	6082.37
2666.23	6076.75
2667.11	6072.01
2668	6068.07
2668.89	6065.79
2669.77	6063.57
2670.66	6057.64
2671.55	6050.49
2672.43	6043.71
2673.32	6039.21
2674.21	6034.81
2675.09	6030.41
2675.98	6024.61
2676.86	6020
2677.75	6011.16
2678.63	6001.1
2679.52	5990.02
2680.4	5979.59
2681.29	5968.95
2682.17	5958.68
2683.06	5947.97
2683.94	5937.7
2684.82	5928.78
2685.71	5922.05
2686.59	5924.81
2687.48	5944.57
2688.36	5943.42
2689.24	5934.98
2690.13	5922.96
2691.01	5906.78
2691.89	5887.37
2692.78	5875.27
2693.66	5856.51
2694.54	5838.79
2695.43	5829.13
2696.31	5825.69
2697.19	5826.79
2698.07	5826.91
2698.96	5826.37
2699.84	5825.77
2700.72	5825.31
2701.6	5824.12
2702.48	5821.8
2703.36	5817.06
2704.25	5800.89
2705.13	5791.47
2706.01	5784.99
2706.89	5782.27
2707.77	5784.41
2708.65	5780.78
2709.53	5770.68
2710.41	5758.75
2711.29	5747.14
2712.17	5735.28
2713.05	5725.51
2713.93	5719.06
2714.81	5716.22
2715.69	5710.32
2716.57	5701.5
2717.45	5696.14
2718.33	5682.83
2719.21	5681.6
2720.09	5685.18
2720.97	5688.18
2721.85	5695.37
2722.73	5696.98
2723.61	5691.62
2724.48	5679.03
2725.36	5665.1
2726.24	5654.04
2727.12	5644.27
2728	5634.33
2728.88	5625.95
2729.75	5618.64
2730.63	5614.13
2731.51	5612.03
2732.39	5612.07
2733.26	5615.21
2734.14	5614.21
2735.02	5613.6
2735.89	5612
2736.77	5609.73
2737.65	5606.52
2738.52	5601.76
2739.4	5594.98
2740.28	5584.54
2741.15	5575.58
2742.03	5577.06
2742.9	5575.43
2743.78	5573.34
2744.65	5556.66
2745.53	5532.92
2746.41	5508.08
2747.28	5491.97
2748.16	5548.38
2749.03	5589.86
2749.91	5555.64
2750.78	5461.41
2751.66	5474.85
2752.53	5490.21
2753.4	5509.75
2754.28	5501.85
2755.15	5477.4
2756.02	5459.58
2756.9	5449.56
2757.77	5462.06
2758.65	5467.44
2759.52	5469.72
2760.39	5469.24
2761.27	5466.18
2762.14	5460.82
2763.01	5452.96
2763.88	5443.36
2764.76	5432.61
2765.63	5421.87
2766.5	5407.09
2767.37	5402.57
2768.25	5409.72
2769.12	5413.75
2769.99	5416.15
2770.86	5415.16
2771.73	5404.39
2772.61	5387.93
2773.48	5374.6
2774.35	5360.55
2775.22	5346.47
2776.09	5336.13
2776.96	5333.66
2777.83	5333.86
2778.7	5336.47
2779.57	5338.01
2780.44	5337.55
2781.31	5336.16
2782.18	5333.88
2783.05	5330.77
2783.92	5327.01
2784.79	5323.03
2785.66	5319.02
2786.53	5315.01
2787.4	5312.12
2788.27	5310.08
2789.14	5310.79
2790.01	5308.29
2790.88	5301.09
2791.75	5275.61
2792.62	5255.24
2793.48	5243.03
2794.35	5236.59
2795.22	5251.01
2796.09	5246.82
2796.96	5244.38
2797.82	5241.32
2798.69	5235.65
2799.56	5226.86
2800.43	5213.59
2801.29	5233.94
2802.16	5251.42
2803.03	5246.11
2803.9	5227.51
2804.76	5163.25
2805.63	5147.3
2806.5	5159.64
2807.36	5165.87
2808.23	5170.95
2809.09	5173.28
2809.96	5171.27
2810.83	5169
2811.69	5165.38
2812.56	5159.11
2813.42	5151.77
2814.29	5142.21
2815.15	5131.52
2816.02	5120.71
2816.88	5112.9
2817.75	5115.09
2818.61	5113.49
2819.48	5111.74
2820.34	5111.16
2821.21	5110.12
2822.07	5110.19
2822.94	5108.9
2823.8	5105.87
2824.66	5101.47
2825.53	5093.61
2826.39	5087.95
2827.26	5080.69
2828.12	5073.37
2828.98	5065.52
2829.85	5057.52
2830.71	5049.77
2831.57	5043.2
2832.43	5042.13
2833.3	5045.81
2834.16	5052.02
2835.02	5053.26
2835.88	5046.33
2836.75	5039.74
2837.61	5037.16
2838.47	5032.05
2839.33	5026.83
2840.19	5021.68
2841.06	5016
2841.92	5009.89
2842.78	4990.4
2843.64	4979.69
2844.5	4974.39
2845.36	4970.55
2846.22	4984.14
2847.08	4975.17
2847.94	4968.93
2848.81	4962.53
2849.67	4956.5
2850.53	4950.9
2851.39	4945.79
2852.25	4941.94
2853.11	4938.75
2853.97	4935.91
2854.82	4933.58
2855.68	4925.4
2856.54	4921.14
2857.4	4915.83
2858.26	4911.58
2859.12	4907.47
2859.98	4904.36
2860.84	4902.03
2861.7	4904.08
2862.56	4909.93
2863.41	4905.01
2864.27	4895.49
2865.13	4883.49
2865.99	4871.91
2866.85	4873.43
2867.7	4871.93
2868.56	4867.52
2869.42	4865.75
2870.28	4856.38
2871.13	4844.24
2871.99	4835.07
2872.85	4827.52
2873.7	4821.19
2874.56	4816.16
2875.42	4812.93
2876.27	4811.88
2877.13	4819.24
2877.99	4810.93
2878.84	4801.88
2879.7	4800.21
2880.56	4802.27
2881.41	4807.49
2882.27	4821.88
2883.12	4822.67
2883.98	4791.1
2884.83	4771.75
2885.69	4762.08
2886.54	4756.88
2887.4	4756.8
2888.25	4776.9
2889.11	4785.89
2889.96	4766.89
2890.82	4755.64
2891.67	4743.1
2892.52	4731.99
2893.38	4723.08
2894.23	4716.98
2895.09	4713.33
2895.94	4711.98
2896.79	4713.39
2897.65	4716.69
2898.5	4712.58
2899.35	4706.06
2900.21	4698.7
2901.06	4689.48
2901.91	4678.48
2902.76	4665
2903.62	4660.28
2904.47	4661.38
2905.32	4658.43
2906.17	4653.26
2907.03	4644.46
2907.88	4634.21
2908.73	4622.77
2909.58	4612.72
2910.43	4603.6
2911.28	4599.06
2912.14	4610.71
2912.99	4623.28
2913.84	4626.13
2914.69	4622.94
2915.54	4613.13
2916.39	4601.53
2917.24	4593.58
2918.09	4585.17
2918.94	4575.21
2919.79	4566.64
2920.64	4557.5
2921.49	4546.36
2922.34	4528.37
2923.19	4515.86
2924.04	4506.71
2924.89	4502.46
2925.74	4499.93
2926.59	4498.8
2927.44	4498.18
2928.29	4498.34
2929.14	4500.7
2929.98	4502.85
2930.83	4504.39
2931.68	4503.98
2932.53	4498.88
2933.38	4492.32
2934.23	4483.91
2935.07	4475.13
2935.92	4467.37
2936.77	4462.4
2937.62	4460.02
2938.47	4459.92
2939.31	4455.75
2940.16	4443.25
2941.01	4428.33
2941.85	4422.39
2942.7	4421.35
2943.55	4428.03
2944.39	4424.04
2945.24	4420.33
2946.09	4416.48
2946.93	4412.25
2947.78	4407.45
2948.63	4402.35
2949.47	4398.84
2950.32	4395.19
2951.16	4391.83
2952.01	4388.13
2952.85	4382.09
2953.7	4374.32
2954.55	4367.27
2955.39	4360.53
2956.24	4354.98
2957.08	4351.21
2957.92	4348.31
2958.77	4346.24
2959.61	4344.98
2960.46	4344.62
2961.3	4344.54
2962.15	4347.27
2962.99	4364.47
2963.83	4363.89
2964.68	4355.38
2965.52	4343.53
2966.37	4337.73
2967.21	4330.64
2968.05	4319.92
2968.9	4310.36
2969.74	4299.49
2970.58	4289.63
2971.42	4287.17
2972.27	4292.7
2973.11	4301.49
2973.95	4304.86
2974.79	4308.54
2975.64	4308.38
2976.48	4305.98
2977.32	4302.48
2978.16	4297.95
2979	4292.62
2979.85	4286.55
2980.69	4280.6
2981.53	4273.75
2982.37	4266.41
2983.21	4258.65
2984.05	4250.62
2984.89	4242.83
2985.73	4235.6
2986.57	4229.13
2987.41	4223.95
2988.25	4219.13
2989.1	4215.19
2989.94	4214.02
2990.77	4214.88
2991.62	4218.8
2992.45	4220.34
2993.29	4219.78
2994.13	4221.88
2994.97	4219.11
2995.81	4216.59
2996.65	4214.49
2997.49	4194.84
2998.33	4196.69
2999.17	4192.71
