200.833	18681.7
202.102	18705.4
203.371	18626.5
204.639	18627.9
205.907	18631.4
207.175	18650.1
208.442	18669.9
209.71	18686.6
210.977	18703.6
212.244	18726.8
213.511	18749.9
214.777	18759
216.042	18797.1
217.309	18836.7
218.575	18867.8
219.84	18897.1
221.106	18926
222.371	18954.9
223.635	18984.1
224.9	19013.2
226.165	19042.5
227.429	19071.6
228.694	19100.9
229.956	19131
231.22	19160.9
232.484	19267.2
233.747	19277.8
235.011	19308.6
236.272	19339.2
237.535	19374.1
238.798	19409.2
240.06	19441.1
241.321	19474.1
242.583	19509.6
243.845	19541.9
245.105	19563
246.367	19580.2
247.628	19592.6
248.888	19601.6
250.149	19604.8
251.409	19604.4
252.67	19600.3
253.928	19596
255.189	19592.8
256.447	19593.2
257.707	19615.9
258.966	19657.4
260.224	19718.6
261.483	19762
262.742	19788.1
263.999	19803.1
265.257	19801.8
266.514	19769.8
267.772	19772.9
269.028	19778.3
270.286	19798.7
271.543	19832.3
272.799	19867.1
274.056	19893.4
275.311	19928
276.568	19943.8
277.823	19940.8
279.079	19949.5
280.333	19968.2
281.589	20000.3
282.843	20041.4
284.099	20074.7
285.352	20092.7
286.607	20107.7
287.86	20127.3
289.114	20147.5
290.368	20167.2
291.621	20187.5
292.875	20208.1
294.127	20228.9
295.38	20249.8
296.632	20269.9
297.884	20278.3
299.137	20278.4
300.388	20297.5
301.641	20326.5
302.891	20352.9
304.142	20365.3
305.394	20371.8
306.644	20378.2
307.894	20383.5
309.146	20388.6
310.395	20392.2
311.645	20391.6
312.895	20388.7
314.144	20384.7
315.393	20387.8
316.642	20401.6
317.892	20417.5
319.14	20435
320.388	20453.8
321.637	20471.5
322.885	20491
324.132	20511.5
325.38	20531.8
326.628	20551.6
327.875	20569.6
329.122	20586.2
330.368	20600
331.614	20613.6
332.862	20626.2
334.108	20640.8
335.353	20673.6
336.599	20756.5
337.844	20680.9
339.089	20669.4
340.335	20706.8
341.58	20723.2
342.824	20741.5
344.068	20760.6
345.312	20780.9
346.556	20804.6
347.8	20828.9
349.043	20849
350.286	20869.4
351.53	20804.2
352.774	20861.5
354.016	20876.3
355.259	20885.5
356.501	20890.1
357.743	20890.2
358.985	20885.6
360.227	20878
361.468	20869.1
362.709	20863.9
363.95	20878.4
365.191	20899.9
366.432	20925.9
367.672	20950.6
368.912	20961.6
370.152	20965.7
371.392	20939.2
372.632	20911.6
373.871	20908.1
375.11	20923.7
376.348	20936.1
377.587	20949.4
378.825	20966.3
380.064	20986.9
381.302	21009.2
382.54	21033
383.778	21058.3
385.016	21083
386.253	21095.3
387.489	21094.9
388.726	21093.9
389.963	21109.4
391.199	21124.2
392.436	21138
393.672	21148.2
394.907	21155.4
396.142	21161.2
397.378	21166
398.614	21168.7
399.849	21173.8
401.082	21200.9
402.317	21236.1
403.552	21248.2
404.786	21228.3
406.019	21204.9
407.253	21186.5
408.487	21227.4
409.721	21292.8
410.953	21310.2
412.186	21318.5
413.419	21321.5
414.651	21313.3
415.883	21303.3
417.116	21291.9
418.347	21291.7
419.579	21293
420.811	21294.2
422.041	21293.4
423.272	21287.6
424.504	21281
425.733	21271.4
426.964	21268.1
428.194	21273.9
429.424	21304.4
430.654	21344.1
431.883	21349.1
433.113	21355.9
434.341	21367.8
435.571	21379.8
436.799	21390.2
438.028	21399.5
439.257	21406.5
440.484	21414.3
441.713	21423
442.94	21432
444.168	21442
445.394	21451.1
446.622	21459.7
447.848	21466.7
449.076	21473
450.301	21476.1
451.528	21477.9
452.754	21479.7
453.979	21482.4
455.205	21486.9
456.43	21495.5
457.656	21509.9
458.88	21525.2
460.106	21542.1
461.33	21551
462.554	21528.8
463.779	21501.8
465.002	21493.7
466.225	21504.4
467.45	21511.2
468.672	21519.7
469.895	21525.8
471.119	21528.4
472.341	21528.2
473.563	21524.9
474.786	21518.8
476.008	21509.9
477.229	21497.5
478.452	21482.8
479.673	21467.2
480.894	21456.1
482.115	21453.7
483.337	21455.7
484.557	21463.6
485.777	21474
486.997	21482.9
488.218	21484.9
489.438	21485.1
490.657	21483.1
491.876	21478.9
493.096	21471.6
494.315	21460.7
495.533	21448.3
496.752	21438.2
497.97	21439.1
499.188	21447.7
500.407	21455
501.625	21461.1
502.842	21473.1
504.059	21484.7
505.276	21500.3
506.493	21516.1
507.71	21528.9
508.926	21524.9
510.142	21498.6
511.358	21483.1
512.575	21477.4
513.791	21486.1
515.006	21504
516.222	21529.4
517.437	21560
518.651	21587.8
519.866	21609.6
521.081	21616.8
522.295	21612.5
523.509	21605.4
524.723	21597.1
525.937	21597.8
527.15	21604
528.363	21617.2
529.576	21651.7
530.789	21670.1
532.002	21674.8
533.215	21666
534.426	21646.9
535.638	21560.5
536.85	21538.7
538.061	21528.5
539.273	21627.7
540.484	21681.8
541.695	21684.2
542.906	21677.1
544.117	21668.4
545.327	21660.1
546.537	21648.3
547.747	21638.4
548.957	21633.4
550.167	21637.3
551.377	21654.2
552.585	21671.4
553.794	21681.3
555.003	21686.7
556.212	21689.4
557.421	21691.6
558.628	21693.9
559.836	21694.3
561.044	21694.8
562.252	21694
563.458	21690.9
564.666	21686.2
565.873	21678.5
567.08	21663.1
568.286	21648.8
569.493	21636.9
570.699	21640.3
571.904	21648.2
573.111	21658.2
574.317	21668.6
575.521	21678.7
576.727	21688.7
577.932	21698.8
579.136	21709
580.341	21718.7
581.544	21727.9
582.749	21735.4
583.954	21741
585.156	21743.8
586.361	21743.9
587.563	21740.3
588.767	21732.6
589.97	21720.9
591.172	21703.6
592.375	21686.6
593.577	21671.9
594.78	21668.1
595.981	21675.1
597.183	21693.2
598.384	21719.3
599.586	21751.4
600.786	21810.7
601.988	21737.5
603.188	21654.3
604.389	21673.9
605.589	21665.8
606.79	21654.5
607.989	21661.6
609.188	21672.6
610.389	21676.1
611.587	21677
612.787	21664.5
613.986	21589
615.184	21437.4
616.383	21447
617.581	21493.5
618.78	21517.3
619.977	21479.6
621.174	21464.9
622.373	21465.5
623.57	21479.2
624.766	21507.5
625.964	21503.7
627.16	21455.1
628.356	21425
629.554	21408.2
630.749	21404.8
631.945	21412.2
633.14	21432.1
634.337	21433.9
635.532	21431.1
636.726	21420.6
637.921	21402
639.117	21378.4
640.311	21364.1
641.505	21356
642.699	21358
643.892	21362.1
645.087	21367.5
646.28	21372.7
647.473	21378.3
648.666	21383.3
649.859	21390
651.051	21395.5
652.245	21400.5
653.437	21404.1
654.629	21405
655.821	21406.6
657.012	21411.3
658.204	21414.8
659.395	21417
660.586	21409.8
661.777	21397.9
662.967	21384.1
664.158	21369.7
665.349	21368.7
666.539	21376.8
667.729	21387.4
668.919	21399.1
670.109	21407.8
671.298	21413.8
672.487	21417.1
673.676	21419.8
674.865	21421.6
676.053	21421.7
677.242	21419.9
678.43	21414
679.616	21402.2
680.804	21381.3
681.992	21373.1
683.179	21370.1
684.366	21372.9
685.554	21380.7
686.74	21394.6
687.927	21411
689.114	21439.3
690.3	21438.8
691.486	21394.8
692.671	21314.2
693.856	21332.1
695.042	21323
696.227	21318.4
697.413	21317.2
698.598	21323.1
699.781	21322.7
700.966	21321.5
702.15	21316.1
703.334	21311.3
704.518	21303.5
705.701	21296.1
706.885	21278.7
708.068	21245.5
709.252	21260.6
710.433	21295.8
711.616	21281.4
712.799	21251.7
713.98	21171.2
715.163	21136.7
716.345	21149.5
717.527	21151.7
718.707	21159.1
719.889	21167.6
721.071	21176.9
722.25	21186.1
723.432	21191.9
724.611	21199.4
725.792	21200.1
726.972	21198.5
728.151	21198
729.332	21201.8
730.512	21219.6
731.69	21230.1
732.87	21233.6
734.048	21242.6
735.227	21245.8
736.405	21246.3
737.584	21227.2
738.761	21207.3
739.94	21212.1
741.117	21214
742.295	21225.1
743.471	21236.8
744.649	21245.9
745.825	21259.6
747.003	21280.1
748.179	21293.5
749.356	21299.3
750.531	21300.6
751.708	21297.3
752.883	21284.5
754.059	21277.4
755.234	21267.7
756.409	21259.1
757.585	21251.5
758.759	21244.9
759.934	21239.3
761.108	21234.8
762.282	21232.7
763.456	21231.6
764.63	21230.7
765.803	21228
766.977	21222.8
768.15	21216
769.323	21206.7
770.496	21195.9
771.668	21183.3
772.841	21168.8
774.014	21153
775.185	21136.7
776.357	21125.3
777.528	21117.4
778.701	21114.1
779.872	21110.8
781.042	21103.2
782.213	21090.9
783.383	21073.9
784.555	21052.3
785.725	21020.2
786.895	20986.1
788.064	20958.8
789.234	20937.8
790.404	20929.1
791.573	20916.3
792.742	20924.1
793.911	20927.4
795.08	20933
796.248	20922.3
797.416	20909
798.584	20886.8
799.753	20864
800.921	20843.9
802.088	20831.1
803.256	20822.5
804.423	20819.7
805.59	20825.8
806.756	20840.8
807.923	20861.3
809.089	20893.5
810.256	20835
811.422	20789.6
812.587	20794.4
813.753	20824.3
814.918	20825.3
816.084	20831.1
817.249	20842.5
818.414	20858.9
819.578	20880.2
820.743	20907.5
821.907	20935
823.072	20923.1
824.236	20913.3
825.399	20912.5
826.562	20913.6
827.725	20915.5
828.889	20918.1
830.052	20923.5
831.215	20926.2
832.377	20930.5
833.54	20932.5
834.701	20933.8
835.863	20942.2
837.025	20955.8
838.187	20980.3
839.349	20998.3
840.51	21016.9
841.67	21019.6
842.831	21000.2
843.992	20966.8
845.153	20928.9
846.312	20903.4
847.473	20886.8
848.633	20880.4
849.793	20889.3
850.951	20897.6
852.111	20886.8
853.27	20861.8
854.428	20824.1
855.588	20777.3
856.747	20735.3
857.904	20710.2
859.063	20734.7
860.221	20749.7
861.378	20775
862.536	20806.5
863.694	20822
864.85	20794.6
866.008	20711.4
867.164	20676.5
868.321	20648.1
869.478	20631.6
870.633	20615.3
871.79	20599.8
872.945	20585.6
874.101	20566.9
875.256	20545
876.412	20521.5
877.566	20496.4
878.722	20469.4
879.876	20443.2
881.031	20416.7
882.185	20408
883.34	20409
884.493	20418.7
885.647	20424
886.8	20425.5
887.954	20432.4
889.107	20436.5
890.261	20438.4
891.413	20437.5
892.565	20434.7
893.718	20425
894.87	20410.9
896.023	20391
897.174	20369.6
898.326	20352
899.478	20346.1
900.629	20371.4
901.779	20381.4
902.931	20401
904.081	20409.3
905.231	20412
906.383	20405.8
907.532	20386.7
908.682	20361.7
909.831	20346.5
910.982	20349.1
912.131	20377.6
913.28	20415.2
914.429	20439.3
915.578	20407.2
916.727	20386.3
917.875	20440.6
919.023	20461.4
920.171	20473.5
921.32	20475.5
922.467	20468.5
923.614	20452.7
924.761	20428.4
925.908	20427.4
927.055	20419.9
928.203	20429.4
929.349	20432.6
930.496	20436.6
931.642	20435
932.787	20427.5
933.933	20415.4
935.079	20398.9
936.224	20377.8
937.369	20353.6
938.514	20324
939.659	20353.2
940.804	20398.5
941.948	20353.6
943.092	20348.9
944.236	20357.1
945.38	20357.5
946.524	20355.5
947.667	20363.2
948.811	20367.1
949.954	20349.9
951.097	20323
952.24	20293.1
953.383	20268
954.525	20245.1
955.667	20232.4
956.81	20212.4
957.952	20184.2
959.093	20197.2
960.235	20215.5
961.376	20233.9
962.516	20253.6
963.658	20259.9
964.798	20238.4
965.939	20180.6
967.08	20156.8
968.22	20141.3
969.359	20129.8
970.499	20116.5
971.639	20105.4
972.779	20095
973.918	20084.5
975.056	20073.7
976.195	20063.8
977.334	20055.2
978.473	20048.1
979.61	20043.1
980.749	20047.7
981.887	20052.8
983.024	20060.5
984.162	20069.9
985.3	20078.4
986.437	20078.2
987.573	20073.8
988.711	20068.1
989.848	20062.1
990.983	20053.1
992.12	20055.9
993.255	20062.4
994.392	20071.5
995.528	20082.3
996.662	20094.9
997.798	20103
998.933	20083.2
1000.07	20071.6
1001.2	20062.8
1002.34	20052.4
1003.47	20050
1004.61	20048.9
1005.74	20052.8
1006.87	20058.7
1008.01	20067.1
1009.14	20071
1010.27	20044.3
1011.41	20029.3
1012.54	20020.4
1013.67	20015.3
1014.81	20013.6
1015.94	20016.3
1017.07	20023.8
1018.2	20037.1
1019.33	20053.3
1020.47	20061.2
1021.6	20051.8
1022.73	20040.8
1023.86	20021.1
1024.99	19992.3
1026.12	19947.4
1027.25	19925.8
1028.38	19928.4
1029.51	19936.3
1030.64	19946
1031.77	19961.1
1032.9	19947.9
1034.03	19902.2
1035.16	19872.6
1036.29	19849.4
1037.42	19827.8
1038.55	19807.4
1039.67	19786.7
1040.8	19765.7
1041.93	19744
1043.06	19721.1
1044.19	19695.2
1045.31	19672.9
1046.44	19654.4
1047.57	19641.1
1048.69	19632.3
1049.82	19622.5
1050.95	19612.9
1052.08	19599.5
1053.2	19589.6
1054.33	19581.7
1055.45	19575.2
1056.58	19569
1057.7	19563
1058.83	19555.9
1059.95	19547.6
1061.08	19537.7
1062.2	19528.3
1063.33	19520.2
1064.45	19513.9
1065.58	19509.1
1066.7	19505.8
1067.83	19504.9
1068.95	19504.8
1070.07	19502.3
1071.2	19498.9
1072.32	19493.9
1073.44	19487.3
1074.56	19485.8
1075.69	19489.5
1076.81	19499.7
1077.93	19507.1
1079.05	19511.4
1080.17	19512.6
1081.3	19507.3
1082.42	19507.1
1083.54	19513.3
1084.66	19528.2
1085.78	19537.1
1086.9	19537.7
1088.02	19530.7
1089.14	19516.3
1090.26	19493.7
1091.38	19475.2
1092.5	19460.7
1093.62	19438.5
1094.74	19440.3
1095.86	19447.6
1096.98	19458.8
1098.1	19472
1099.22	19484.7
1100.34	19497.2
1101.45	19501.6
1102.57	19488.7
1103.69	19472.3
1104.81	19462.5
1105.93	19458.8
1107.04	19462.4
1108.16	19456.9
1109.28	19464.5
1110.4	19454.8
1111.51	19443.9
1112.63	19426.3
1113.75	19399.9
1114.86	19390.9
1115.98	19385.6
1117.09	19416.7
1118.21	19421.4
1119.32	19402.5
1120.44	19373.2
1121.55	19331.5
1122.67	19297.1
1123.78	19265.4
1124.9	19248.1
1126.01	19231.9
1127.13	19216.9
1128.24	19202.6
1129.35	19184.1
1130.47	19163
1131.58	19140.2
1132.7	19117.3
1133.81	19088
1134.92	19051
1136.03	19001.7
1137.15	18960.2
1138.26	18938.6
1139.37	18927.8
1140.48	18919.7
1141.59	18914.3
1142.71	18910.5
1143.82	18907.5
1144.93	18905
1146.04	18900.3
1147.15	18893.7
1148.26	18884.3
1149.37	18872.3
1150.48	18858.4
1151.59	18842.6
1152.7	18826.9
1153.81	18812
1154.92	18796.8
1156.03	18780.6
1157.14	18764.1
1158.25	18747.5
1159.36	18730.9
1160.47	18731.5
1161.58	18748.7
1162.68	18759.7
1163.79	18763.9
1164.9	18769.5
1166.01	18773.4
1167.12	18775.8
1168.22	18775.7
1169.33	18774.2
1170.44	18770.7
1171.55	18765
1172.65	18756.2
1173.76	18740
1174.87	18719.5
1175.97	18711.8
1177.08	18712.1
1178.18	18728.4
1179.29	18763.9
1180.4	18789.2
1181.5	18795.6
1182.61	18784.9
1183.71	18750.7
1184.82	18684.6
1185.92	18738
1187.02	18769.5
1188.13	18800.1
1189.23	18804
1190.34	18788.3
1191.44	18751.4
1192.54	18766.6
1193.65	18772.4
1194.75	18775.5
1195.85	18771.5
1196.96	18763.8
1198.06	18749.7
1199.16	18737.1
1200.26	18728.3
1201.37	18723.2
1202.47	18721.2
1203.57	18728.9
1204.67	18738.5
1205.77	18744.9
1206.87	18748.4
1207.97	18748.2
1209.08	18746.5
1210.18	18729
1211.28	18695.4
1212.38	18665
1213.48	18643.2
1214.58	18630.7
1215.68	18640.9
1216.78	18690.5
1217.88	18715.8
1218.98	18704.9
1220.07	18633.3
1221.17	18632.6
1222.27	18620.8
1223.37	18612.7
1224.47	18605
1225.57	18598.2
1226.66	18588.6
1227.76	18575.4
1228.86	18561.8
1229.96	18547.3
1231.06	18533.1
1232.15	18521.7
1233.25	18510
1234.35	18500.8
1235.44	18492.8
1236.54	18487.6
1237.63	18483.5
1238.73	18479.9
1239.83	18476.1
1240.92	18454.7
1242.02	18426.3
1243.11	18407.3
1244.21	18388.5
1245.3	18376.4
1246.4	18366.7
1247.49	18360.4
1248.59	18357.1
1249.68	18357
1250.78	18359
1251.87	18347.8
1252.96	18336.3
1254.06	18255.7
1255.15	18262.1
1256.24	18319.9
1257.34	18302.4
1258.43	18347.3
1259.52	18262.4
1260.62	18256.2
1261.71	18259.6
1262.8	18283.8
1263.89	18299.3
1264.98	18277.4
1266.08	18266.8
1267.17	18258.7
1268.26	18252.7
1269.35	18292.8
1270.44	18304.7
1271.53	18316.7
1272.62	18312.1
1273.71	18300.5
1274.8	18285.1
1275.89	18263.5
1276.98	18242.1
1278.07	18226.6
1279.16	18225.4
1280.25	18230.7
1281.34	18238.4
1282.43	18248.2
1283.52	18260.5
1284.61	18276.6
1285.69	18293.1
1286.78	18312
1287.87	18331.4
1288.96	18349.8
1290.05	18339.9
1291.13	18314.3
1292.22	18278.9
1293.31	18266.3
1294.4	18262.8
1295.48	18286.9
1296.57	18304.9
1297.66	18317.2
1298.74	18326
1299.83	18324.1
1300.92	18305.2
1302	18286.8
1303.09	18262.4
1304.17	18249.3
1305.26	18246.3
1306.34	18240.1
1307.43	18246.7
1308.51	18252.8
1309.6	18258.8
1310.68	18253.9
1311.76	18250
1312.85	18239.2
1313.93	18211.2
1315.02	18192.5
1316.1	18181.8
1317.18	18176.8
1318.27	18180.4
1319.35	18178.9
1320.43	18173.3
1321.52	18156.8
1322.6	18141.4
1323.68	18126
1324.76	18110.8
1325.85	18100.2
1326.93	18095.3
1328.01	18098.2
1329.09	18102.1
1330.17	18103.6
1331.25	18094.2
1332.33	18074.2
1333.41	18054.8
1334.49	18041.1
1335.58	18025.3
1336.65	18014.1
1337.74	18009
1338.82	18006.7
1339.89	18010.3
1340.97	18010.5
1342.05	18009.8
1343.13	17998
1344.21	17973.6
1345.29	17956.4
1346.37	17943.3
1347.45	17950.3
1348.53	17957.5
1349.6	17967.7
1350.68	17973.4
1351.76	17958.3
1352.84	17953.7
1353.92	17949.7
1354.99	17945.4
1356.07	17941
1357.15	17936.2
1358.22	17931.6
1359.3	17928.4
1360.38	17931.9
1361.45	17937.6
1362.53	17931
1363.61	17925
1364.68	17920.1
1365.76	17917.9
1366.83	17915.5
1367.91	17916.6
1368.98	17925
1370.06	17937.3
1371.13	17943.5
1372.21	17943.2
1373.28	17940.3
1374.35	17934.7
1375.43	17929.9
1376.5	17932.5
1377.58	17927.3
1378.65	17914.1
1379.72	17902.1
1380.8	17892.5
1381.87	17884.9
1382.94	17879.3
1384.01	17872.4
1385.09	17865.1
1386.16	17854
1387.23	17840.5
1388.3	17827.5
1389.38	17815.5
1390.45	17805.6
1391.52	17797.2
1392.59	17790.4
1393.66	17784.5
1393.92	17782.5
1395	17782.7
1396.07	17784.3
1397.15	17789.1
1398.22	17792.4
1399.3	17795.8
1400.38	17797.1
1401.45	17797
1402.53	17792.1
1403.6	17784.1
1404.68	17772.5
1405.75	17752
1406.82	17741.7
1407.9	17732.7
1408.97	17725.2
1410.05	17719.6
1411.12	17715.3
1412.19	17714.4
1413.27	17693.5
1414.34	17661.3
1415.41	17618.8
1416.49	17613.8
1417.56	17625
1418.63	17636.3
1419.7	17642.4
1420.78	17646.8
1421.85	17655.4
1422.92	17660
1423.99	17662.9
1425.06	17663.2
1426.14	17658.3
1427.21	17645.3
1428.28	17624.8
1429.35	17606.9
1430.42	17586.9
1431.49	17568
1432.56	17552
1433.63	17540.8
1434.7	17532.1
1435.77	17526.3
1436.84	17524.7
1437.91	17526
1438.98	17530.4
1440.05	17535.9
1441.12	17536.6
1442.18	17533.7
1443.25	17527.1
1444.32	17515.6
1445.39	17503.4
1446.46	17485.2
1447.53	17471.7
1448.59	17466.8
1449.66	17464
1450.73	17464.2
1451.8	17467.3
1452.86	17458.1
1453.93	17444.5
1455	17429.3
1456.06	17315.7
1457.13	17465.2
1458.2	17495.8
1459.26	17462.5
1460.33	17453.1
1461.39	17420.7
1462.46	17401.3
1463.52	17389.3
1464.59	17382
1465.65	17384.2
1466.72	17416.8
1467.78	17430.4
1468.85	17448.3
1469.91	17443.3
1470.98	17443.7
1472.04	17434.3
1473.1	17422.2
1474.17	17413.3
1475.23	17405.9
1476.3	17405.3
1477.36	17402.3
1478.42	17392.7
1479.48	17382.9
1480.55	17371.4
1481.61	17364.6
1482.67	17357.7
1483.73	17351
1484.8	17343.9
1485.86	17335.7
1486.92	17324.4
1487.98	17298.3
1489.04	17272.2
1490.1	17251.6
1491.17	17235.6
1492.23	17238
1493.29	17255.7
1494.35	17272.1
1495.41	17280.7
1496.47	17285.4
1497.53	17286.2
1498.59	17277.1
1499.65	17264
1500.71	17244.9
1501.77	17221.1
1502.83	17192.8
1503.88	17163.8
1504.94	17151.3
1506	17144.2
1507.06	17164.6
1508.12	17176
1509.18	17174.8
1510.23	17156.4
1511.29	17130.3
1512.35	17098
1513.41	17067
1514.47	17046.2
1515.52	17042.2
1516.58	17048
1517.64	17063.9
1518.69	17076.7
1519.75	17080.3
1520.81	17072.9
1521.86	17062.3
1522.92	17050.3
1523.97	17037.3
1525.03	17023.9
1526.08	17010.1
1527.14	16992.2
1528.2	16978.6
1529.25	16970.1
1530.31	16966.2
1531.36	16967.3
1532.42	16969.6
1533.47	16974.4
1534.52	16976.7
1535.58	16971.5
1536.63	16958.8
1537.69	16939.4
1538.74	16917.9
1539.79	16889.6
1540.84	16879.8
1541.9	16932.8
1542.95	16929
1544	16929.2
1545.06	16936.1
1546.11	16943.4
1547.16	16947.3
1548.21	16950.3
1549.27	16950.2
1550.32	16952.4
1551.37	16925.3
1552.42	16892.2
1553.47	16835.1
1554.52	16817.2
1555.57	16837.1
1556.62	16862.6
1557.67	16860.7
1558.72	16857.4
1559.77	16853.6
1560.82	16847.2
1561.87	16839.9
1562.92	16828.2
1563.97	16814.7
1565.02	16809.4
1566.07	16810.3
1567.12	16816.4
1568.17	16820.9
1569.22	16825.6
1570.27	16830.6
1571.32	16835.8
1572.36	16840.9
1573.41	16845.6
1574.46	16849.4
1575.51	16852.1
1576.56	16850.2
1577.6	16844.1
1578.65	16836
1579.7	16825.5
1580.74	16813.1
1581.79	16799.8
1582.84	16799.2
1583.88	16786.1
1584.93	16764.8
1585.98	16735.5
1587.02	16702.8
1588.07	16684.5
1589.11	16677.8
1590.16	16694.6
1591.2	16711
1592.25	16723.5
1593.29	16730.1
1594.34	16729.5
1595.38	16719.6
1596.43	16704
1597.47	16685.6
1598.52	16663.2
1599.56	16638.3
1600.6	16612.6
1601.65	16594.3
1602.69	16570.8
1603.73	16548.3
1604.78	16536.3
1605.82	16534.8
1606.86	16542.5
1607.91	16540.8
1608.95	16536.6
1609.99	16531.8
1611.03	16523.1
1612.08	16511.5
1613.12	16497
1614.16	16480
1615.2	16460.1
1616.24	16438.8
1617.28	16418.6
1618.32	16398.7
1619.36	16379
1620.41	16360.6
1621.45	16347.3
1622.49	16343.9
1623.53	16358.1
1624.57	16346.7
1625.61	16329.2
1626.65	16304.1
1627.69	16285.6
1628.73	16253.5
1629.76	16224.7
1630.8	16211.2
1631.84	16213.6
1632.88	16221.5
1633.92	16235.1
1634.96	16240.8
1636	16243
1637.03	16236.9
1638.07	16225.2
1639.11	16211.1
1640.15	16193.9
1641.19	16174.3
1642.22	16151.3
1643.26	16126.1
1644.3	16100.1
1645.33	16076.5
1646.37	16059.1
1647.41	16048.3
1648.44	16056
1649.48	16070.2
1650.52	16083.5
1651.55	16087.6
1652.59	16087.1
1653.62	16083.5
1654.66	16076.1
1655.69	16069.5
1656.73	16057.1
1657.76	16042.3
1658.8	16026.5
1659.83	16011.2
1660.87	15996.1
1661.9	15985.1
1662.93	15981.9
1663.97	15980.6
1665	15981.9
1666.04	15990.5
1667.07	16001.8
1668.1	16012.7
1669.14	16014.9
1670.17	15998.2
1671.2	15983.3
1672.23	15967.8
1673.27	15952.1
1674.3	15936.3
1675.33	15920.9
1676.36	15906
1677.39	15893.9
1678.43	15883.7
1679.46	15874.9
1680.49	15867.7
1681.52	15861.8
1682.55	15857.8
1683.58	15855.3
1684.61	15853.4
1685.64	15851.6
1686.67	15848
1687.7	15845.2
1688.73	15842.7
1689.76	15837.8
1690.79	15830.9
1691.82	15820.5
1692.85	15806.7
1693.88	15790.5
1694.91	15771.2
1695.94	15749.2
1696.97	15724.3
1698	15698.4
1699.02	15682.4
1700.05	15716.4
1701.08	15733.7
1702.11	15742.8
1703.14	15750.5
1704.16	15741.3
1705.19	15725.5
1706.22	15701.7
1707.25	15670.9
1708.27	15633.5
1709.3	15592.5
1710.33	15573.7
1711.35	15572.7
1712.38	15579.8
1713.41	15583.2
1714.43	15514.8
1715.46	15487.6
1716.48	15469.7
1717.51	15486.2
1718.53	15570.8
1719.56	15528.2
1720.58	15508
1721.61	15483.4
1722.63	15461.4
1723.66	15449.9
1724.68	15442.8
1725.71	15441.1
1726.73	15444.4
1727.75	15453.4
1728.78	15467.4
1729.8	15487.2
1730.83	15501.9
1731.85	15463.1
1732.87	15419.7
1733.89	15378.6
1734.92	15340.8
1735.94	15323.3
1736.96	15310.7
1737.98	15301.6
1739.01	15295.9
1740.03	15294
1741.05	15288.6
1742.07	15277.2
1743.09	15257.3
1744.12	15243.6
1745.14	15240.7
1746.16	15239.6
1747.18	15240.3
1748.2	15234.1
1749.22	15221.6
1750.24	15204.2
1751.26	15190.2
1752.28	15184.9
1753.3	15177.6
1754.32	15177.2
1755.34	15185.7
1756.36	15181.1
1757.38	15161.4
1758.4	15131.6
1759.42	15115.2
1760.44	15103
1761.45	15100
1762.47	15125.3
1763.49	15118.7
1764.51	15106
1765.53	15093.8
1766.55	15076.7
1767.56	15060.5
1768.58	15044.3
1769.6	15031.6
1770.61	15020.7
1771.63	15016.4
1772.65	15013.6
1773.67	15011.6
1774.68	15009
1775.7	15004.2
1776.72	14999.8
1777.73	14994.3
1778.75	14987.8
1779.76	14980.2
1780.78	14970.7
1781.79	14959.5
1782.81	14940.3
1783.83	14898.1
1784.84	14876.3
1785.85	14862.4
1786.87	14876.9
1787.88	14895.5
1788.9	14894.9
1789.91	14891.6
1790.93	14870.2
1791.94	14878
1792.95	14886.2
1793.97	14894.2
1794.98	14894.4
1796	14889.5
1797.01	14879.6
1798.02	14864
1799.03	14842.2
1800.05	14814.9
1801.06	14786.3
1802.07	14759.3
1803.08	14751
1804.1	14740.2
1805.11	14732.6
1806.12	14726
1807.13	14720.9
1808.14	14715.7
1809.15	14708
1810.17	14695.7
1811.18	14677.5
1812.19	14655.3
1813.2	14631.9
1814.21	14603.8
1815.22	14587.9
1816.23	14585.3
1817.24	14596.2
1818.25	14584.1
1819.26	14567.9
1820.27	14547
1821.28	14520.8
1822.29	14499.3
1823.3	14494
1824.3	14480
1825.31	14464.4
1826.32	14452.4
1827.33	14436.6
1828.34	14413.9
1829.35	14399
1830.35	14389.5
1831.36	14384.3
1832.37	14380.9
1833.38	14381.3
1834.38	14380
1835.39	14377.9
1836.4	14353.8
1837.41	14312.2
1838.41	14292.1
1839.42	14288.6
1840.43	14302.5
1841.43	14313.8
1842.44	14321.9
1843.44	14325.7
1844.45	14264.5
1845.46	14251.1
1846.46	14243.4
1847.47	14233.5
1848.47	14236
1849.48	14240.8
1850.48	14228.3
1851.49	14213.8
1852.49	14194.7
1853.49	14171.2
1854.5	14151.7
1855.5	14134.5
1856.51	14116.3
1857.51	14098.2
1858.51	14078.9
1859.52	14058.4
1860.52	14033.8
1861.52	14021.4
1862.53	14035.1
1863.53	14048.3
1864.53	14059
1865.54	14066.7
1866.54	14070.4
1867.54	14058.2
1868.54	14045.1
1869.54	14017.9
1870.55	13991.7
1871.55	13989.7
1872.55	13987.3
1873.55	13983.2
1874.55	13974.8
1875.55	13959.6
1876.55	13936
1877.55	13927.5
1878.55	13920.8
1879.55	13916.6
1880.56	13914
1881.55	13913.2
1882.56	13912.6
1883.55	13895.5
1884.55	13867.1
1885.55	13842.3
1886.55	13803.4
1887.55	13796.5
1888.55	13800
1889.55	13809.8
1890.55	13803.2
1891.55	13800
1892.55	13794.5
1893.54	13786.4
1894.54	13776.1
1895.54	13763.5
1896.54	13748.7
1897.54	13731.6
1898.53	13714.3
1899.53	13706.2
1900.53	13698.4
1901.52	13689.7
1902.52	13679.7
1903.52	13668.3
1904.51	13656.3
1905.51	13644.3
1906.51	13631.8
1907.5	13620
1908.5	13608.5
1909.49	13600.4
1910.49	13591.3
1911.49	13579.4
1912.48	13558.8
1913.48	13528.2
1914.47	13496.1
1915.46	13472.3
1916.46	13457.1
1917.45	13450.4
1918.45	13452
1919.44	13462.6
1920.44	13467.2
1921.43	13462.8
1922.43	13449.6
1923.42	13444
1924.41	13431.9
1925.41	13433
1926.4	13429.4
1927.39	13422.1
1928.38	13410.6
1929.38	13395.4
1930.37	13376.2
1931.36	13355.3
1932.35	13344.7
1933.35	13335.3
1934.34	13330.4
1935.33	13360
1936.32	13335.8
1937.31	13303.7
1938.3	13265.8
1939.29	13233.2
1940.29	13219.8
1941.28	13211.2
1942.27	13203.3
1943.26	13198.6
1944.25	13193.8
1945.24	13188.3
1946.23	13181.9
1947.22	13173.3
1948.21	13160.6
1949.2	13144.4
1950.19	13122.3
1951.18	13101.9
1952.17	13081.6
1953.16	13088.4
1954.14	13091.8
1955.13	13084.9
1956.12	13060.9
1957.11	13022.8
1958.1	12999.1
1959.09	12977.3
1960.07	12961.6
1961.06	12983.9
1962.05	12980.6
1963.04	12976.5
1964.02	12964.7
1965.01	12948.1
1966	12933.6
1966.99	12924.9
1967.97	12918.4
1968.96	12912.2
1969.95	12911
1970.93	12919.6
1971.92	12918.4
1972.9	12912.9
1973.89	12906
1974.88	12888.5
1975.86	12865.6
1976.85	12838.8
1977.83	12813.2
1978.82	12787.6
1979.8	12772.2
1980.79	12758.8
1981.77	12748
1982.76	12740.6
1983.74	12735.7
1984.72	12732.6
1985.71	12730.1
1986.69	12728.3
1987.67	12727.8
1988.66	12727.6
1989.64	12725.3
1990.62	12720.1
1991.61	12711.5
1992.59	12699.7
1993.57	12688.6
1994.56	12675.3
1995.54	12660.3
1996.52	12641.9
1997.5	12622
1998.49	12600.2
1999.47	12579.7
2000.45	12575.8
2001.43	12570.5
2002.41	12562.8
2003.39	12554.7
2004.38	12546.4
2005.36	12535.9
2006.34	12524.6
2007.32	12511.6
2008.3	12497.6
2009.28	12482.8
2010.26	12468.2
2011.24	12457.4
2012.22	12445.3
2013.2	12433.7
2014.18	12422
2015.16	12410.4
2016.14	12398.5
2017.12	12386.7
2018.1	12374.6
2019.07	12362.8
2020.05	12351.8
2021.03	12339.9
2022.01	12320.6
2022.99	12297
2023.97	12270
2024.95	12249.4
2025.92	12238.3
2026.9	12235.5
2027.88	12250.1
2028.86	12261.3
2029.83	12263.9
2030.81	12257.6
2031.79	12244
2032.76	12224.4
2033.74	12199.2
2034.72	12171.5
2035.69	12146.7
2036.67	12131.9
2037.65	12122.7
2038.62	12116.7
2039.6	12102.6
2040.57	12091
2041.55	12091.9
2042.52	12094
2043.5	12111.7
2044.47	12110.6
2045.45	12080.1
2046.42	12062.6
2047.4	12047.2
2048.37	12031.3
2049.35	12015.5
2050.32	12000.4
2051.29	11986.4
2052.27	11976.8
2053.24	11967.4
2054.21	11959
2055.19	11948.3
2056.16	11935.4
2057.13	11920.1
2058.11	11902
2059.08	11882
2060.05	11858.5
2061.02	11834.8
2062	11825.8
2062.97	11816
2063.94	11802.4
2064.91	11785.4
2065.89	11769.9
2066.86	11756.4
2067.83	11746.6
2068.8	11741.7
2069.77	11738.3
2070.74	11735
2071.71	11727.8
2072.68	11707.2
2073.65	11688
2074.62	11672.6
2075.59	11663.6
2076.56	11661.6
2077.53	11667.7
2078.5	11670.9
2079.47	11664.8
2080.44	11651.5
2081.41	11631.3
2082.38	11604.6
2083.35	11578.4
2084.32	11558.1
2085.29	11542.8
2086.26	11532
2087.23	11526.1
2088.19	11525
2089.16	11525.6
2090.13	11522.4
2091.1	11516.1
2092.07	11512.2
2093.03	11493.6
2094	11476.9
2094.97	11460.5
2095.94	11444.1
2096.9	11426.1
2097.87	11407.9
2098.84	11388.4
2099.8	11377.7
2100.77	11380.5
2101.74	11385.6
2102.7	11383.8
2103.67	11380.4
2104.63	11374.9
2105.6	11368
2106.56	11360.2
2107.53	11351.3
2108.49	11342.8
2109.46	11334.5
2110.42	11332.3
2111.39	11329.2
2112.35	11323.9
2113.32	11316.4
2114.28	11303.9
2115.25	11286.5
2116.21	11257.2
2117.17	11226.6
2118.14	11197.4
2119.1	11170.2
2120.07	11153.7
2121.03	11137.6
2121.99	11134.9
2122.96	11134.2
2123.92	11139.5
2124.88	11147
2125.84	11154.1
2126.81	11157
2127.77	11152.1
2128.73	11143.4
2129.69	11130.8
2130.65	11114.1
2131.62	11093.2
2132.58	11067.6
2133.54	11038.6
2134.5	11024.9
2135.46	11019.5
2136.42	11012.4
2137.38	11005.4
2138.34	10998.5
2139.3	10992.3
2140.26	10986.4
2141.22	10979.7
2142.18	10971.5
2143.14	10960.8
2144.1	10948.5
2145.06	10934.7
2146.02	10919.6
2146.98	10903.8
2147.94	10887.5
2148.9	10872.2
2149.86	10858.1
2150.82	10843.1
2151.78	10829.3
2152.74	10816.2
2153.69	10817.3
2154.65	10829.6
2155.61	10829.9
2156.57	10810.3
2157.53	10693.6
2158.48	10691.1
2159.44	10791.5
2160.4	10774.6
2161.36	10735
2162.31	10686
2163.27	10641.7
2164.23	10621.8
2165.18	10615.8
2166.14	10611.9
2167.1	10608
2168.05	10603.5
2169.01	10594.3
2169.96	10583
2170.92	10570.1
2171.88	10555.3
2172.83	10538.8
2173.79	10521
2174.74	10503
2175.7	10485.3
2176.65	10467.7
2177.6	10451.1
2178.56	10436
2179.51	10422.9
2180.47	10411.6
2181.42	10401.6
2182.38	10388.3
2183.33	10345.2
2184.28	10329.9
2185.24	10343.9
2186.19	10349.6
2187.14	10345.8
2188.1	10336.9
2189.05	10327.7
2190	10310
2190.96	10293.5
2191.91	10271.2
2192.86	10255
2193.81	10244.4
2194.76	10238.8
2195.72	10240.7
2196.67	10226.3
2197.62	10208.5
2198.57	10193.7
2199.52	10179
2200.47	10164.7
2201.43	10151.9
2202.38	10140.3
2203.33	10129.6
2204.28	10119.5
2205.23	10110.4
2206.18	10095.7
2207.13	10077.6
2208.08	10067.5
2209.03	10060.9
2209.98	10056.7
2210.93	10057.1
2211.88	10062.1
2212.83	10058.4
2213.78	10050
2214.73	10042.7
2215.67	10030.5
2216.62	10017
2217.57	10005.2
2218.52	9994.21
2219.47	9981.67
2220.42	9970.01
2221.37	9959.11
2222.31	9950.85
2223.26	9946.66
2224.21	9949.83
2225.16	9955.43
2226.1	9946.5
2227.05	9934.19
2228	9913.26
2228.94	9887.57
2229.89	9866.22
2230.84	9851.17
2231.78	9841.28
2232.73	9848.43
2233.68	9853.06
2234.62	9853.83
2235.57	9858.88
2236.51	9854.92
2237.46	9842.37
2238.41	9826.56
2239.35	9816.88
2240.3	9813.28
2241.24	9809.88
2242.19	9807.41
2243.13	9801.85
2244.07	9799.22
2245.02	9790.21
2245.96	9769.31
2246.91	9753.26
2247.85	9743
2248.8	9738.83
2249.74	9741.91
2250.68	9750.75
2251.63	9763.32
2252.57	9776.5
2253.51	9782.68
2254.46	9783.41
2255.4	9773.14
2256.34	9760.42
2257.28	9746.96
2258.23	9732.88
2259.17	9724.58
2260.11	9716.12
2261.05	9707.04
2262	9696.46
2262.94	9687.06
2263.88	9681.54
2264.82	9680.48
2265.76	9681.88
2266.7	9685.66
2267.64	9693.28
2268.58	9701.3
2269.53	9695.74
2270.47	9685.92
2271.41	9667.91
2272.35	9655.02
2273.29	9647.76
2274.23	9653.75
2275.17	9653.04
2276.11	9651.29
2277.05	9647.12
2277.99	9641.66
2278.93	9635.99
2279.86	9630.14
2280.8	9623.41
2281.74	9617.82
2282.68	9613.62
2283.62	9610.66
2284.56	9609.05
2285.5	9609.09
2286.44	9607.59
2287.37	9595.93
2288.31	9582.97
2289.25	9570.73
2290.19	9561.87
2291.12	9555.69
2292.06	9550.14
2293	9542.98
2293.94	9536.73
2294.87	9533.87
2295.81	9534.4
2296.75	9536.36
2297.68	9541.5
2298.62	9549.05
2299.55	9560.32
2300.49	9573.61
2301.43	9567.71
2302.36	9547.07
2303.3	9519.34
2304.23	9493.2
2305.17	9473.26
2306.1	9458.01
2307.04	9446.19
2307.98	9437.74
2308.91	9433.97
2309.84	9429.6
2310.78	9427.58
2311.71	9425.23
2312.65	9422.86
2313.58	9417.29
2314.52	9404.26
2315.45	9395.18
2316.38	9395.85
2317.32	9398.77
2317.72	9400.5
2318.66	9407.48
2319.6	9364.79
2320.54	9332.27
2321.48	9312.28
2322.41	9305.36
2323.35	9306.57
2324.29	9303.97
2325.23	9300.92
2326.16	9296.92
2327.1	9291.99
2328.04	9286.1
2328.97	9277.57
2329.91	9267.88
2330.85	9256.43
2331.78	9245.3
2332.72	9254.74
2333.66	9226.17
2334.59	9204.52
2335.53	9188.75
2336.46	9179
2337.4	9160.57
2338.33	9240.89
2339.27	9154.14
2340.2	9127.29
2341.14	9137.96
2342.07	9157.58
2343.01	9168.98
2343.94	9169.92
2344.88	9144.38
2345.81	9115.99
2346.75	9096.03
2347.68	9069.08
2348.61	9077.09
2349.55	9084
2350.48	9093.02
2351.41	9105.6
2352.35	9105.34
2353.28	9105.19
2354.21	9085.1
2355.15	9026.21
2356.08	8984.42
2357.01	8982.51
2357.94	9001.62
2358.88	9034.2
2359.81	9046.61
2360.74	9053
2361.67	9052.45
2362.6	9048.05
2363.54	9035.56
2364.47	9017.77
2365.4	8994.94
2366.33	8967.29
2367.26	8949.6
2368.19	8942.83
2369.12	8947.7
2370.05	8955.65
2370.98	8962.38
2371.91	8966.75
2372.84	8968.96
2373.77	8968.74
2374.7	8967.85
2375.63	8965.48
2376.56	8961.5
2377.49	8955.72
2378.42	8948.19
2379.35	8938.98
2380.28	8927.76
2381.21	8914.92
2382.14	8900.35
2383.07	8892.49
2384	8896.56
2384.92	8894.94
2385.85	8893.11
2386.78	8890.81
2387.71	8884
2388.64	8876.28
2389.56	8866.44
2390.49	8855.18
2391.42	8842.88
2392.35	8830.32
2393.27	8823.63
2394.2	8816.33
2395.13	8809.13
2396.05	8801.91
2396.98	8794.58
2397.91	8787.16
2398.83	8779.83
2399.76	8772.79
2400.69	8767.01
2401.61	8762.23
2402.54	8759.12
2403.46	8757.47
2404.39	8758.43
2405.31	8757.74
2406.24	8752.04
2407.17	8743.13
2408.09	8731.39
2409.01	8720.73
2409.94	8710.38
2410.86	8698.82
2411.79	8687.34
2412.71	8675.61
2413.64	8663.92
2414.56	8652.52
2415.49	8642.55
2416.41	8638.21
2417.33	8633.47
2418.26	8628.88
2419.18	8624.26
2420.1	8618.69
2421.03	8600.74
2421.95	8586.27
2422.87	8574.24
2423.79	8567.92
2424.72	8566.43
2425.64	8569.85
2426.56	8568.55
2427.48	8572.5
2428.41	8571.88
2429.33	8561.16
2430.25	8546.64
2431.17	8528.75
2432.09	8507.83
2433.01	8489.33
2433.93	8471.84
2434.86	8456.44
2435.78	8443.94
2436.7	8435.85
2437.62	8439.97
2438.54	8440.43
2439.46	8436.73
2440.38	8428.6
2441.3	8416.35
2442.22	8412.69
2443.14	8410.79
2444.06	8407.66
2444.98	8400.26
2445.9	8389.47
2446.82	8378.53
2447.73	8366.53
2448.65	8351.46
2449.57	8340.52
2450.49	8330.52
2451.41	8320.81
2452.33	8312.04
2453.25	8304.06
2454.17	8296.93
2455.08	8290.93
2456	8286.29
2456.92	8284.63
2457.84	8282.31
2458.75	8279.41
2459.67	8275.26
2460.59	8266.93
2461.51	8257.3
2462.42	8246.72
2463.34	8234.98
2464.26	8222.25
2465.17	8207.53
2466.09	8191.93
2467	8177.54
2467.92	8164.51
2468.84	8152.91
2469.75	8142.44
2470.67	8133
2471.58	8125.1
2472.5	8118.55
2473.42	8113.98
2474.33	8112.44
2475.25	8112.33
2476.16	8113.8
2477.08	8117.45
2477.99	8120.98
2478.9	8117.66
2479.82	8110.25
2480.73	8103.98
2481.65	8096.99
2482.56	8089.33
2483.47	8081.41
2484.39	8072.26
2485.3	8062.51
2486.22	8052.37
2487.13	8042.18
2488.04	8032.86
2488.96	8027.25
2489.87	8025.03
2490.78	8022.9
2491.69	8021.59
2492.61	8019.84
2493.52	8016.98
2494.43	8008.42
2495.34	8002.95
2496.25	7998
2497.17	7997.68
2498.08	8010.43
2498.99	8020.01
2499.9	8019.48
2500.81	8012.97
2501.72	8004.64
2502.63	7993.23
2503.55	7973.97
2504.46	7962.69
2505.37	7946.99
2506.28	7942.56
2507.19	7937.7
2508.1	7926.02
2509.01	7913.61
2509.92	7899.9
2510.83	7885.94
2511.74	7875.16
2512.65	7875.66
2513.56	7879.73
2514.47	7887.85
2515.37	7900.39
2516.28	7916.18
2517.19	7905.53
2518.1	7893.39
2519.01	7880.88
2519.92	7868.03
2520.83	7857.7
2521.73	7864.14
2522.64	7870.09
2523.55	7873.44
2524.46	7874.74
2525.37	7874.7
2526.27	7844.28
2527.18	7814.97
2528.09	7790.36
2529	7767.07
2529.9	7758.71
2530.81	7757.01
2531.72	7761.7
2532.62	7760.96
2533.53	7762.24
2534.44	7761.99
2535.34	7762.3
2536.25	7761.19
2537.15	7759.28
2538.06	7752.07
2538.96	7720.47
2539.87	7716.08
2540.78	7714.31
2541.68	7713.17
2542.59	7708.3
2543.49	7702.51
2544.4	7694.42
2545.3	7684.62
2546.21	7673.14
2547.11	7660.05
2548.01	7646.24
2548.92	7637.72
2549.82	7638.19
2550.73	7635.34
2551.63	7632.13
2552.53	7628.36
2553.44	7622.89
2554.34	7616.74
2555.24	7610.32
2556.15	7602.44
2557.05	7593.4
2557.95	7580.51
2558.86	7556.86
2559.76	7539.34
2560.66	7561.89
2561.56	7571.43
2562.46	7555.51
2563.37	7528.83
2564.27	7507.11
2565.17	7508.75
2566.07	7505.9
2566.97	7497.48
2567.88	7482.74
2568.78	7469.24
2569.68	7438.28
2570.58	7426.78
2571.48	7461.24
2572.38	7463.53
2573.28	7454.5
2574.18	7443.23
2575.08	7429.57
2575.98	7414
2576.88	7396.79
2577.78	7378.68
2578.68	7366.92
2579.58	7363.74
2580.48	7372.28
2581.38	7376.22
2582.28	7367.5
2583.18	7353.57
2584.08	7331.72
2584.98	7321.43
2585.88	7313
2586.77	7307.62
2587.67	7305.46
2588.57	7307.65
2589.47	7313.39
2590.37	7323.55
2591.27	7325.05
2592.16	7293.83
2593.06	7222.28
2593.96	7227.33
2594.86	7232.28
2595.75	7238.43
2596.65	7296.65
2597.55	7285.36
2598.45	7269.55
2599.34	7249.64
2600.24	7226.71
2601.13	7202.56
2602.03	7184.44
2602.93	7187.77
2603.82	7179.64
2604.72	7173.47
2605.62	7169.69
2606.51	7167.3
2607.41	7165.13
2608.3	7163.86
2609.2	7162.43
2610.09	7160.95
2610.99	7158.99
2611.88	7156.64
2612.78	7151.89
2613.67	7141.51
2614.57	7123.72
2615.46	7087.39
2616.36	7055.81
2617.25	7026.69
2618.14	7038.05
2619.04	7037.42
2619.93	7041.68
2620.83	7049.96
2621.72	7061.03
2622.61	7071.85
2623.5	7075.6
2624.4	7068.17
2625.29	7056.88
2626.18	7044.13
2627.08	7031.84
2627.97	7022.34
2628.86	7022.58
2629.75	7028.19
2630.65	7036.16
2631.54	7042.86
2632.43	7038.08
2633.32	7032.31
2634.21	7023.18
2635.11	7012.79
2636	6999.2
2636.89	6980.82
2637.78	6957.37
2638.67	6927.71
2639.56	6900.16
2640.45	6900.38
2641.34	6899.64
2642.23	6896.61
2643.12	6892.33
2644.01	6885.96
2644.9	6878.66
2645.79	6866.08
2646.68	6853.18
2647.57	6840.12
2648.46	6827.29
2649.35	6818.21
2650.24	6808.72
2651.13	6797.81
2652.02	6783.55
2652.91	6766.27
2653.8	6749.66
2654.69	6737.52
2655.58	6738.02
2656.46	6743.04
2657.35	6749.4
2658.24	6747.32
2659.13	6733.02
2660.02	6724.13
2660.9	6717.82
2661.79	6712.48
2662.68	6711.26
2663.57	6717.22
2664.45	6727.35
2665.34	6729.05
2666.23	6722.8
2667.11	6708.69
2668	6687.64
2668.89	6688.38
2669.77	6676.93
2670.66	6665.22
2671.55	6653.46
2672.43	6641.5
2673.32	6631.03
2674.21	6622.19
2675.09	6616.73
2675.98	6615.1
2676.86	6614.89
2677.75	6611.48
2678.63	6605
2679.52	6596.24
2680.4	6585.97
2681.29	6574.32
2682.17	6562.23
2683.06	6549.92
2683.94	6537.57
2684.82	6525.18
2685.71	6514.1
2686.59	6508.98
2687.48	6504.51
2688.36	6495.08
2689.24	6485.77
2690.13	6477.4
2691.01	6470.42
2691.89	6465.45
2692.78	6462.65
2693.66	6467.75
2694.54	6468.79
2695.43	6464.72
2696.31	6457.31
2697.19	6435.31
2698.07	6416.6
2698.96	6399.26
2699.84	6387.36
2700.72	6385.1
2701.6	6390.1
2702.48	6391.78
2703.36	6393.31
2704.25	6392.5
2705.13	6375.47
2706.01	6357.29
2706.89	6347.28
2707.77	6336.51
2708.65	6332.62
2709.53	6330.13
2710.41	6327.99
2711.29	6326.58
2712.17	6325.81
2713.05	6326.05
2713.93	6326.58
2714.81	6326.82
2715.69	6324.85
2716.57	6319.66
2717.45	6310.32
2718.33	6293.06
2719.21	6276.47
2720.09	6261.57
2720.97	6248.2
2721.85	6239.67
2722.73	6232.67
2723.61	6228.58
2724.48	6228.51
2725.36	6231.18
2726.24	6238.88
2727.12	6244.86
2728	6239.43
2728.88	6215.54
2729.75	6192.63
2730.63	6183.45
2731.51	6178.26
2732.39	6188.12
2733.26	6186.14
2734.14	6180.95
2735.02	6176.93
2735.89	6151.58
2736.77	6148.44
2737.65	6148.02
2738.52	6148.4
2739.4	6148.79
2740.28	6150.44
2741.15	6143.35
2742.03	6132.59
2742.9	6119.99
2743.78	6106.13
2744.65	6092.96
2745.53	6091.73
2746.41	6093.31
2747.28	6096.04
2748.16	6103.17
2749.03	6108.35
2749.91	6109.28
2750.78	6105.09
2751.66	6095.84
2752.53	6082.5
2753.4	6064.65
2754.28	6039.03
2755.15	6008.38
2756.02	6009.16
2756.9	6011.52
2757.77	6013.71
2758.65	6016.55
2759.52	6020.38
2760.39	6028.57
2761.27	6039.7
2762.14	6054.11
2763.01	6054.12
2763.88	5995.08
2764.76	5982.95
2765.63	5966.89
2766.5	5992.71
2767.37	5996.46
2768.25	5995.02
2769.12	5989.51
2769.99	5980.11
2770.86	5967.08
2771.73	5949.71
2772.61	5928.73
2773.48	5919.67
2774.35	5915.36
2775.22	5914.74
2776.09	5918.4
2776.96	5922.24
2777.83	5923.05
2778.7	5917.26
2779.57	5906.82
2780.44	5891.16
2781.31	5873.17
2782.18	5864.33
2783.05	5856.25
2783.92	5848.75
2784.79	5841.57
2785.66	5833.85
2786.53	5825.78
2787.4	5814.63
2788.27	5805.44
2789.14	5805.19
2790.01	5808.54
2790.88	5816.01
2791.75	5826.88
2792.62	5823.93
2793.48	5819.42
2794.35	5811.55
2795.22	5799.49
2796.09	5781.72
2796.96	5769.2
2797.82	5759.76
2798.69	5753.51
2799.56	5749.65
2800.43	5748.09
2801.29	5748.69
2802.16	5750.96
2803.03	5754.59
2803.9	5745.75
2804.76	5725.99
2805.63	5713.21
2806.5	5707.96
2807.36	5697.4
2808.23	5699.74
2809.09	5700.23
2809.96	5698.3
2810.83	5694.66
2811.69	5687.53
2812.56	5673.12
2813.42	5659.94
2814.29	5650.13
2815.15	5639.22
2816.02	5625.76
2816.88	5626.59
2817.75	5634.27
2818.61	5641.57
2819.48	5643.97
2820.34	5642.29
2821.21	5639.71
2822.07	5635.08
2822.94	5629.1
2823.8	5621.61
2824.66	5613.27
2825.53	5604.82
2826.39	5596.63
2827.26	5588.69
2828.12	5582.24
2828.98	5580.86
2829.85	5582.69
2830.71	5597.21
2831.57	5600.88
2832.43	5599.49
2833.3	5571.87
2834.16	5545.71
2835.02	5531.88
2835.88	5520.33
2836.75	5539.64
2837.61	5543.57
2838.47	5545.33
2839.33	5546.75
2840.19	5543.77
2841.06	5533.83
2841.92	5526.36
2842.78	5516.79
2843.64	5509.26
2844.5	5502.2
2845.36	5494.85
2846.22	5487.59
2847.08	5479.72
2847.94	5471.47
2848.81	5463.05
2849.67	5454.87
2850.53	5447.79
2851.39	5442.48
2852.25	5439.4
2853.11	5438.74
2853.97	5439.93
2854.82	5442.94
2855.68	5447.09
2856.54	5449.04
2857.4	5445.93
2858.26	5434.47
2859.12	5424.59
2859.98	5414.89
2860.84	5403.1
2861.7	5389.53
2862.56	5390.25
2863.41	5396
2864.27	5404.47
2865.13	5413.82
2865.99	5408.83
2866.85	5363.86
2867.7	5370.9
2868.56	5367.8
2869.42	5365.54
2870.28	5364.84
2871.13	5364.8
2871.99	5365.34
2872.85	5366.09
2873.7	5367.02
2874.56	5367.78
2875.42	5376.45
2876.27	5357.19
2877.13	5332.5
2877.99	5299.85
2878.84	5282.1
2879.7	5273.81
2880.56	5287.81
2881.41	5301.99
2882.27	5316.68
2883.12	5302.95
2883.98	5293.41
2884.83	5280.63
2885.69	5264.98
2886.54	5252.19
2887.4	5234.97
2888.25	5226.11
2889.11	5233.74
2889.96	5239.33
2890.82	5241.47
2891.67	5240.56
2892.52	5236.64
2893.38	5225.88
2894.23	5210.69
2895.09	5194.11
2895.94	5176.94
2896.79	5164.49
2897.65	5154.56
2898.5	5145.64
2899.35	5139.21
2900.21	5134.73
2901.06	5132.55
2901.91	5132.96
2902.76	5136.64
2903.62	5165.92
2904.47	5174.8
2905.32	5175.83
2906.17	5149.1
2907.03	5131.22
2907.88	5123.43
2908.73	5117.32
2909.58	5110.89
2910.43	5106.42
2911.28	5114.39
2912.14	5112.66
2912.99	5100.95
2913.84	5079.88
2914.69	5061.29
2915.54	5052.52
2916.39	5055.92
2917.24	5074.4
2918.09	5082.89
2918.94	5085.76
2919.79	5091.16
2920.64	5079.02
2921.49	5039.83
2922.34	5015.07
2923.19	4993.85
2924.04	4982.78
2924.89	4978.14
2925.74	4977.48
2926.59	4969.93
2927.44	4968.01
2928.29	4967.76
2929.14	4969.91
2929.98	4973.22
2930.83	4980.37
2931.68	4985.67
2932.53	4974.95
2933.38	4958.43
2934.23	4946.73
2935.07	4940.23
2935.92	4939.22
2936.77	4945.65
2937.62	4944.86
2938.47	4942.32
2939.31	4937.11
2940.16	4916.96
2941.01	4909.95
2941.85	4904.67
2942.7	4903.19
2943.55	4902.64
2944.39	4901.2
2945.24	4898.3
2946.09	4893
2946.93	4885.13
2947.78	4875.59
2948.63	4864.91
2949.47	4860.08
2950.32	4851.06
2951.16	4842.52
2952.01	4833.86
2952.85	4825.52
2953.7	4817.48
2954.55	4810.83
2955.39	4816.69
2956.24	4828.07
2957.08	4839.37
2957.92	4840.23
2958.77	4815.45
2959.61	4784.07
2960.46	4781.67
2961.3	4776.45
2962.15	4771.82
2962.99	4769.45
2963.83	4769.41
2964.68	4771.95
2965.52	4775.98
2966.37	4782.52
2967.21	4782.9
2968.05	4767.89
2968.9	4750.73
2969.74	4736.11
2970.58	4722.05
2971.42	4715.86
2972.27	4727.48
2973.11	4729.14
2973.95	4729.63
2974.79	4729.24
2975.64	4727.24
2976.48	4723.54
2977.32	4716.51
2978.16	4707.8
2979	4697.53
2979.85	4686.52
2980.69	4680.85
2981.53	4675.2
2982.37	4670.63
2983.21	4672.41
2984.05	4679.71
2984.89	4685
2985.73	4690.03
2986.57	4689.81
2987.41	4687.02
2988.25	4681.95
2989.1	4675.29
2989.94	4667.22
2990.77	4657.62
2991.62	4646.77
2992.45	4635.17
2993.29	4623.87
2994.13	4614.46
2994.97	4608.41
2995.81	4601.94
2996.65	4605.05
2997.49	4613.99
2998.33	4635.63
2999.17	4581.93
