200.833	18862.5
202.102	18912.1
203.371	18875.2
204.639	18870.1
205.907	18883.9
207.175	18903
208.442	18907.6
209.71	18910.9
210.977	18918.4
212.244	18914.7
213.511	18910.5
214.777	18907.9
216.042	18922.4
217.309	18940.8
218.575	18972.9
219.84	19018.4
221.106	19055.6
222.371	19090.2
223.635	19125.5
224.9	19163.2
226.165	19204
227.429	19247
228.694	19291.7
229.956	19338.1
231.22	19385.3
232.484	19434.1
233.747	19482.4
235.011	19526.5
236.272	19553
237.535	19572.8
238.798	19594.1
240.06	19613.7
241.321	19634
242.583	19654.2
243.845	19675.4
245.105	19696
246.367	19716
247.628	19727.9
248.888	19759
250.149	19793.5
251.409	19827.4
252.67	19850.2
253.928	19858.7
255.189	19852.3
256.447	19829.7
257.707	19822.6
258.966	19824.4
260.224	19837.9
261.483	19893.7
262.742	19924.1
263.999	19956.7
265.257	19980.1
266.514	20018.7
267.772	20013.7
269.028	20011.2
270.286	20008.6
271.543	20029.1
272.799	20062.1
274.056	20106.2
275.311	20134.8
276.568	20141.6
277.823	20148.8
279.079	20156.9
280.333	20163.6
281.589	20177.3
282.843	20200.9
284.099	20239.6
285.352	20275.7
286.607	20310
287.86	20341.8
289.114	20351
290.368	20377.7
291.621	20400.6
292.875	20425.2
294.127	20444.2
295.38	20467.6
296.632	20479.7
297.884	20480.8
299.137	20479.7
300.388	20479.7
301.641	20484
302.891	20494.4
304.142	20504.9
305.394	20516.9
306.644	20531.5
307.894	20549.4
309.146	20560.6
310.395	20565.1
311.645	20560.4
312.895	20559.7
314.144	20560.3
315.393	20574.3
316.642	20590.1
317.892	20610.6
319.14	20634.5
320.388	20663.9
321.637	20699.6
322.885	20730
324.132	20753
325.38	20748.1
326.628	20741
327.875	20738.6
329.122	20829.2
330.368	20876.6
331.614	20880.8
332.862	20876.6
334.108	20876.1
335.353	20892.6
336.599	20902.4
337.844	20912.4
339.089	20923.4
340.335	20935.7
341.58	20949.5
342.824	20964.9
344.068	20981.8
345.312	20999.7
346.556	21017.5
347.8	21038.7
349.043	21055.5
350.286	21068.6
351.53	21078
352.774	21085.3
354.016	21096.1
355.259	21104
356.501	21111.1
357.743	21117.3
358.985	21122.3
360.227	21126.7
361.468	21130.5
362.709	21133.5
363.95	21136.2
365.191	21139.1
366.432	21141.7
367.672	21144.1
368.912	21145.8
370.152	21148.9
371.392	21156.7
372.632	21166.7
373.871	21178.8
375.11	21187.5
376.348	21197
377.587	21209.5
378.825	21216.2
380.064	21201.8
381.302	21193.9
382.54	21202.6
383.778	21238.8
385.016	21286.6
386.253	21324.3
387.489	21358.9
388.726	21334.3
389.963	21336.3
391.199	21340.4
392.436	21347.4
393.672	21357.7
394.907	21374.5
396.142	21385.9
397.378	21400.1
398.614	21414.5
399.849	21429.8
401.082	21448.9
402.317	21469.1
403.552	21489.9
404.786	21508.5
406.019	21525.4
407.253	21537.9
408.487	21542.5
409.721	21546
410.953	21546.6
412.186	21542.6
413.419	21545.1
414.651	21570.8
415.883	21611.1
417.116	21607.1
418.347	21583.8
419.579	21567.7
420.811	21566.5
422.041	21585.6
423.272	21597.2
424.504	21609.6
425.733	21625.6
426.964	21628
428.194	21612.8
429.424	21587.1
430.654	21587.7
431.883	21597.1
433.113	21622.2
434.341	21652.4
435.571	21675.9
436.799	21694.7
438.028	21704.2
439.257	21709.7
440.484	21706.4
441.713	21695.8
442.94	21681
444.168	21658.5
445.394	21665.5
446.622	21685
447.848	21706.8
449.076	21727.2
450.301	21745
451.528	21762.6
452.754	21780
453.979	21795.7
455.205	21809.4
456.43	21820.6
457.656	21828.7
458.88	21831.6
460.106	21835.4
461.33	21837.2
462.554	21835.4
463.779	21832.1
465.002	21826.8
466.225	21820
467.45	21813.4
468.672	21807.8
469.895	21811.7
471.119	21820.6
472.341	21830.6
473.563	21840.2
474.786	21849.6
476.008	21850.4
477.229	21849.1
478.452	21845.7
479.673	21839.6
480.894	21825.7
482.115	21805.9
483.337	21778.6
484.557	21745.3
485.777	21710.4
486.997	21692.3
488.218	21684.4
489.438	21691.4
490.657	21695.4
491.876	21705.2
493.096	21723.1
494.315	21746.6
495.533	21779.9
496.752	21809.2
497.97	21698.8
499.188	21609.6
500.407	21776.5
501.625	21760.8
502.842	21768.2
504.059	21780.1
505.276	21795
506.493	21813.2
507.71	21835.6
508.926	21848
510.142	21853.9
511.358	21844.8
512.575	21843.1
513.791	21843.7
515.006	21845
516.222	21848.9
517.437	21856.7
518.651	21868.6
519.866	21884.8
521.081	21903.4
522.295	21921.9
523.509	21932.8
524.723	21943.1
525.937	21950.1
527.15	21954.4
528.363	21956.4
529.576	21956.1
530.789	21954.8
532.002	21954.1
533.215	21950.8
534.426	21948.1
535.638	21947.2
536.85	21950.8
538.061	21957.2
539.273	21971.8
540.484	21980.9
541.695	21988
542.906	21995
544.117	21988.7
545.327	21979.7
546.537	21974.7
547.747	21973.8
548.957	21975.3
550.167	21975.3
551.377	21978.5
552.585	21981.8
553.794	21983.6
555.003	21981.9
556.212	21960.7
557.421	21964.3
558.628	21980.6
559.836	21995.5
561.044	22003.7
562.252	22005.4
563.458	21997.1
564.666	21980.9
565.873	21968.8
567.08	21959.5
568.286	21973
569.493	21976.2
570.699	21988
571.904	21989.2
573.111	21979.5
574.317	21987.5
575.521	21999.1
576.727	22027.5
577.932	22053.3
579.136	22034.4
580.341	22030.2
581.544	22021.8
582.749	22017.5
583.954	22014.1
585.156	22011.1
586.361	22009.6
587.563	22008.6
588.767	22009.1
589.97	22011.4
591.172	22016
592.375	22028.7
593.577	22031.2
594.78	22028.7
595.981	22016.8
597.183	22019.1
598.384	22019
599.586	22019.6
600.786	22019.4
601.988	22017.6
603.188	21999.8
604.389	21979
605.589	21960
606.79	21937.6
607.989	21925.3
609.188	21928
610.389	21926.5
611.587	21923.9
612.787	21915.1
613.986	21907.1
615.184	21901.9
616.383	21897.8
617.581	21893.7
618.78	21890.4
619.977	21887.8
621.174	21886.7
622.373	21879.1
623.57	21844.4
624.766	21813.1
625.964	21801.4
627.16	21783.8
628.356	21774.3
629.554	21768.2
630.749	21765.4
631.945	21757.4
633.14	21735.4
634.337	21705.8
635.532	21678.3
636.726	21654.6
637.921	21647.7
639.117	21639.5
640.311	21684.5
641.505	21726.2
642.699	21748.5
643.892	21750.1
645.087	21731.9
646.28	21724.1
647.473	21740.8
648.666	21744
649.859	21739.5
651.051	21730.8
652.245	21721
653.437	21711.7
654.629	21702
655.821	21684.9
657.012	21667.8
658.204	21661.5
659.395	21662.9
660.586	21672.2
661.777	21690.4
662.967	21709.9
664.158	21726.5
665.349	21747.8
666.539	21755.9
667.729	21760.8
668.919	21767.8
670.109	21771.1
671.298	21784
672.487	21792.8
673.676	21803.6
674.865	21811.3
676.053	21820.9
677.242	21828.6
678.43	21819.6
679.616	21804.6
680.804	21790.9
681.992	21782.4
683.179	21772.4
684.366	21761.5
685.554	21752.9
686.74	21755.7
687.927	21778.4
689.114	21789.2
690.3	21793.5
691.486	21763.8
692.671	21743.3
693.856	21713.2
695.042	21677.4
696.227	21637
697.413	21606.2
698.598	21582.1
699.781	21575.2
700.966	21568.8
702.15	21569.2
703.334	21571.8
704.518	21579.7
705.701	21589.4
706.885	21578.6
708.068	21567.4
709.252	21548.7
710.433	21534.3
711.616	21527.3
712.799	21521.7
713.98	21520.5
715.163	21523.2
716.345	21527.3
717.527	21531.6
718.707	21536.3
719.889	21541.1
721.071	21546.7
722.25	21552.8
723.432	21559.5
724.611	21566.2
725.792	21573.4
726.972	21566.3
728.151	21553.1
729.332	21540.9
730.512	21537.4
731.69	21548.1
732.87	21565.8
734.048	21576.3
735.227	21587.9
736.405	21568.1
737.584	21577.7
738.761	21583.5
739.94	21597.3
741.117	21614.3
742.295	21631.3
743.471	21636.6
744.649	21637.3
745.825	21633.4
747.003	21630.1
748.179	21626
749.356	21621
750.531	21615.5
751.708	21609.7
752.883	21603.8
754.059	21604.4
755.234	21603.6
756.409	21604.7
757.585	21601.9
758.759	21603.3
759.934	21594.1
761.108	21603.8
762.282	21608.7
763.456	21632.9
764.63	21642.2
765.803	21612.1
766.977	21578.9
768.15	21554.7
769.323	21534.9
770.496	21524.4
771.668	21509.2
772.841	21498.2
774.014	21502.5
775.185	21494.9
776.357	21470.7
777.528	21436
778.701	21410.8
779.872	21393.6
781.042	21375.2
782.213	21383.9
783.383	21393.1
784.555	21404.8
785.725	21419.1
786.895	21414.6
788.064	21396
789.234	21373.4
790.404	21359.9
791.573	21342.9
792.742	21337.4
793.911	21332
795.08	21321.8
796.248	21316.6
797.416	21303.8
798.584	21271.5
799.753	21259.1
800.921	21251.7
802.088	21258.9
803.256	21275.4
804.423	21273.5
805.59	21271.1
806.756	21268.6
807.923	21253.7
809.089	21221.3
810.256	21187.6
811.422	21189.1
812.587	21189.1
813.753	21199.2
814.918	21211.8
816.084	21220.9
817.249	21229.9
818.414	21237.5
819.578	21243.3
820.743	21247.6
821.907	21249.3
823.072	21249.5
824.236	21248.4
825.399	21247.3
826.562	21256.8
827.725	21273.3
828.889	21312.8
830.052	21324.6
831.215	21338.7
832.377	21340.6
833.54	21329.2
834.701	21315.2
835.863	21304.1
837.025	21300.6
838.187	21291.9
839.349	21293.7
840.51	21300.3
841.67	21300.8
842.831	21293.9
843.992	21282.9
845.153	21275.9
846.312	21268.6
847.473	21262.3
848.633	21258.2
849.793	21254.5
850.951	21251.8
852.111	21250
853.27	21249.4
854.428	21240.3
855.588	21214.5
856.747	21190.5
857.904	21162.8
859.063	21137.6
860.221	21125.9
861.378	21115.7
862.536	21108.5
863.694	21102.6
864.85	21093.5
866.008	21074.7
867.164	21051.5
868.321	21021.3
869.478	21000.7
870.633	20987.4
871.79	20982
872.945	20982.8
874.101	20995.6
875.256	20987.2
876.412	20972.6
877.566	20955
878.722	20933
879.876	20913.6
881.031	20890.2
882.185	20866.5
883.34	20840.9
884.493	20814.7
885.647	20789
886.8	20767.2
887.954	20775.7
889.107	20787
890.261	20803.9
891.413	20813
892.565	20813.7
893.718	20808.1
894.87	20801.1
896.023	20796.4
897.174	20790.1
898.326	20783.2
899.478	20776.3
900.629	20768.9
901.779	20761.8
902.931	20754.9
904.081	20749.5
905.231	20745.2
906.383	20757.6
907.532	20769.9
908.682	20784
909.831	20801.9
910.982	20815
912.131	20824.5
913.28	20817.2
914.429	20817.8
915.578	20818
916.727	20817.5
917.875	20817.1
919.023	20817.2
920.171	20817.2
921.32	20817.5
922.467	20818.2
923.614	20822.9
924.761	20831.6
925.908	20843.8
927.055	20855.1
928.203	20858.3
929.349	20851.8
930.496	20844.4
931.642	20827.6
932.787	20799.1
933.933	20782.7
935.079	20771.9
936.224	20770.7
937.369	20779.3
938.514	20804.1
939.659	20816.2
940.804	20816.3
941.948	20804.2
943.092	20769.5
944.236	20726.7
945.38	20718.5
946.524	20707.2
947.667	20702.2
948.811	20705.1
949.954	20703.3
951.097	20697.3
952.24	20691.7
953.383	20685.2
954.525	20678.5
955.667	20671.6
956.81	20664.6
957.952	20658.1
959.093	20652.3
960.235	20641.5
961.376	20627.2
962.516	20609.3
963.658	20589.5
964.798	20571.3
965.939	20562
967.08	20554.6
968.22	20548.3
969.359	20543.1
970.499	20538.8
971.639	20536.5
972.779	20535.9
973.918	20534.7
975.056	20534.5
976.195	20527.3
977.334	20515.4
978.473	20502.3
979.61	20488.1
980.749	20473.1
981.887	20462.2
983.024	20470.1
984.162	20473.6
985.3	20474.2
986.437	20474.7
987.573	20475.6
988.711	20477.2
989.848	20479
990.983	20482.8
992.12	20486.9
993.255	20490.8
994.392	20493.7
995.528	20495.7
996.662	20497.4
997.798	20498.5
998.933	20499.2
1000.07	20499.7
1001.2	20499.7
1002.34	20500
1003.47	20499.3
1004.61	20496.8
1005.74	20493.4
1006.87	20489.4
1008.01	20484.5
1009.14	20478.1
1010.27	20470.6
1011.41	20460.5
1012.54	20452.6
1013.67	20456.6
1014.81	20476.2
1015.94	20499.2
1017.07	20512.7
1018.2	20521.5
1019.33	20523.3
1020.47	20502
1021.6	20466.1
1022.73	20443.3
1023.86	20432.1
1024.99	20417.4
1026.12	20400.2
1027.25	20381
1028.38	20361.1
1029.51	20341.6
1030.64	20322.3
1031.77	20302.1
1032.9	20281.9
1034.03	20265.3
1035.16	20257.9
1036.29	20255.8
1037.42	20247.9
1038.55	20238.1
1039.67	20227.1
1040.8	20213.8
1041.93	20198.6
1043.06	20181.1
1044.19	20160.6
1045.31	20140
1046.44	20120.7
1047.57	20107
1048.69	20095.1
1049.82	20085.2
1050.95	20077
1052.08	20070.2
1053.2	20064.7
1054.33	20060
1055.45	20050.3
1056.58	20034
1057.7	20017.3
1058.83	20002.8
1059.95	19991.8
1061.08	19987.9
1062.2	19984.8
1063.33	19982
1064.45	19981.1
1065.58	19981.4
1066.7	19984.8
1067.83	19989.5
1068.95	19994.5
1070.07	19997.2
1071.2	19980.5
1072.32	19958.4
1073.44	19943.3
1074.56	19925.7
1075.69	19906.3
1076.81	19905.1
1077.93	19907.5
1079.05	19909
1080.17	19910.7
1081.3	19912.1
1082.42	19913.7
1083.54	19901.1
1084.66	19892.1
1085.78	19879.1
1086.9	19876.3
1088.02	19893.7
1089.14	19904.8
1090.26	19910.2
1091.38	19909.2
1092.5	19900.8
1093.62	19881.2
1094.74	19944.7
1095.86	20022
1096.98	19951.5
1098.1	19932.8
1099.22	19919.9
1100.34	19917.2
1101.45	19920
1102.57	19918.7
1103.69	19922.5
1104.81	19930.3
1105.93	19934.7
1107.04	19930.1
1108.16	19917
1109.28	19907.7
1110.4	19895.7
1111.51	19882.1
1112.63	19867.2
1113.75	19851.2
1114.86	19834.3
1115.98	19816.2
1117.09	19797.4
1118.21	19775.9
1119.32	19750.8
1120.44	19719.2
1121.55	19697.9
1122.67	19688.2
1123.78	19678.8
1124.9	19670.8
1126.01	19664.8
1127.13	19655.7
1128.24	19638.2
1129.35	19599.1
1130.47	19562.8
1131.58	19521.7
1132.7	19480.5
1133.81	19450.6
1134.92	19443.9
1136.03	19433.4
1137.15	19425.6
1138.26	19420.4
1139.37	19412.9
1140.48	19391.8
1141.59	19367.8
1142.71	19345.6
1143.82	19326.3
1144.93	19316.5
1146.04	19305.9
1147.15	19297.7
1148.26	19290.2
1149.37	19286.8
1150.48	19259.1
1151.59	19232.7
1152.7	19209.2
1153.81	19189.6
1154.92	19180.1
1156.03	19173.8
1157.14	19172.4
1158.25	19167.1
1159.36	19155.3
1160.47	19140.3
1161.58	19118.8
1162.68	19109.9
1163.79	19104.2
1164.9	19101.2
1166.01	19101.2
1167.12	19104.1
1168.22	19109.9
1169.33	19118.6
1170.44	19128.6
1171.55	19139.8
1172.65	19153.1
1173.76	19170.4
1174.87	19152.1
1175.97	19129.4
1177.08	19109.8
1178.18	19101
1179.29	19143.4
1180.4	19148.3
1181.5	19152
1182.61	19162
1183.71	19171
1184.82	19178.8
1185.92	19185.5
1187.02	19198.6
1188.13	19208
1189.23	19212.9
1190.34	19211.6
1191.44	19188.7
1192.54	19162.8
1193.65	19151.3
1194.75	19137.9
1195.85	19127.3
1196.96	19123.8
1198.06	19124.1
1199.16	19139.4
1200.26	19163.2
1201.37	19192.9
1202.47	19215.4
1203.57	19183.5
1204.67	19165.8
1205.77	19149.9
1206.87	19135.6
1207.97	19123
1209.08	19111.9
1210.18	19101.9
1211.28	19093.5
1212.38	19086.9
1213.48	19082.1
1214.58	19080.4
1215.68	19088.1
1216.78	19101.9
1217.88	19114
1218.98	19119.3
1220.07	19126.2
1221.17	19132.3
1222.27	19117.4
1223.37	19079.3
1224.47	19048.1
1225.57	19021
1226.66	18992.6
1227.76	18970
1228.86	18950.3
1229.96	18933.4
1231.06	18920.3
1232.15	18910.4
1233.25	18903.3
1234.35	18897.4
1235.44	18893.4
1236.54	18888.5
1237.63	18884
1238.73	18874.4
1239.83	18862.5
1240.92	18855.2
1242.02	18853.7
1243.11	18865.3
1244.21	18869
1245.3	18845.7
1246.4	18819.8
1247.49	18777.2
1248.59	18744
1249.68	18728.6
1250.78	18730.9
1251.87	18727.2
1252.96	18721.1
1254.06	18715.3
1255.15	18710.4
1256.24	18704.5
1257.34	18697.9
1258.43	18691.1
1259.52	18684.1
1260.62	18676.7
1261.71	18669.3
1262.8	18661.9
1263.89	18653.9
1264.98	18646.2
1266.08	18645.6
1267.17	18648.2
1268.26	18652.9
1269.35	18657.4
1270.44	18662.1
1271.53	18667.7
1272.62	18674.1
1273.71	18681.3
1274.8	18689
1275.89	18697
1276.98	18704.6
1278.07	18709.7
1279.16	18714.1
1280.25	18709.2
1281.34	18706
1282.43	18699.6
1283.52	18700.1
1284.61	18712.7
1285.69	18705.6
1286.78	18702.9
1287.87	18689.8
1288.96	18690.2
1290.05	18691.6
1291.13	18697.3
1292.22	18707.9
1293.31	18723.2
1294.4	18742.2
1295.48	18763
1296.57	18764.4
1297.66	18764.2
1298.74	18756.8
1299.83	18739.5
1300.92	18718.1
1302	18697.6
1303.09	18678.9
1304.17	18670.1
1305.26	18662.3
1306.34	18656.6
1307.43	18660.3
1308.51	18665.5
1309.6	18673.1
1310.68	18678.2
1311.76	18676.3
1312.85	18674.7
1313.93	18669.5
1315.02	18657.3
1316.1	18642.9
1317.18	18625.7
1318.27	18610
1319.35	18603.6
1320.43	18600.1
1321.52	18595.1
1322.6	18591.5
1323.68	18586.2
1324.76	18572.1
1325.85	18547
1326.93	18519.8
1328.01	18492.5
1329.09	18477.4
1330.17	18476
1331.25	18471.5
1332.33	18476.5
1333.41	18489.2
1334.49	18490.1
1335.58	18479.3
1336.65	18465.3
1337.74	18449.3
1338.82	18437.6
1339.89	18432.6
1340.97	18428.3
1342.05	18423
1343.13	18416.1
1344.21	18409
1345.29	18397.9
1346.37	18391.4
1347.45	18383.8
1348.53	18380.9
1349.6	18374.2
1350.68	18372
1351.76	18378.7
1352.84	18383.1
1353.92	18386.3
1354.99	18385.6
1356.07	18378.1
1357.15	18378.6
1358.22	18374.3
1359.3	18360.8
1360.38	18355.6
1361.45	18360.3
1362.53	18360.6
1363.61	18361.7
1364.68	18339.5
1365.76	18321.8
1366.83	18314.5
1367.91	18317.1
1368.98	18332.2
1370.06	18334.8
1371.13	18322.4
1372.21	18313.2
1373.28	18314.8
1374.35	18316.2
1375.43	18319.5
1376.5	18318.1
1377.58	18316.7
1378.65	18309.8
1379.72	18302.4
1380.8	18294.6
1381.87	18286.6
1382.94	18285.4
1384.01	18284.3
1385.09	18279.7
1386.16	18271.8
1387.23	18254.9
1388.3	18245.9
1389.38	18239.1
1390.45	18232.1
1391.52	18225.1
1392.59	18218.4
1393.66	18211.8
1393.92	18209.2
1395	18206.4
1396.07	18203
1397.15	18199.4
1398.22	18195.6
1399.3	18191.6
1400.38	18187.6
1401.45	18183
1402.53	18177.8
1403.6	18172.7
1404.68	18168.5
1405.75	18175.8
1406.82	18182.2
1407.9	18194.5
1408.97	18152.7
1410.05	18114.2
1411.12	18098.8
1412.19	18096.3
1413.27	18090
1414.34	18082.9
1415.41	18079.8
1416.49	18078.7
1417.56	18078.9
1418.63	18079.9
1419.7	18081
1420.78	18080.7
1421.85	18066.1
1422.92	18047.8
1423.99	18017.3
1425.06	17977.6
1426.14	17950.6
1427.21	17942.8
1428.28	17936.6
1429.35	18050.6
1430.42	18010
1431.49	17994.2
1432.56	17973.5
1433.63	17955.8
1434.7	17944.5
1435.77	17939.8
1436.84	17945.4
1437.91	17955
1438.98	17968.3
1440.05	17981.7
1441.12	17953.5
1442.18	17939.4
1443.25	17923.8
1444.32	17910.2
1445.39	17903.3
1446.46	17901.5
1447.53	17902
1448.59	17904
1449.66	17905.5
1450.73	17904.9
1451.8	17885.6
1452.86	17879.3
1453.93	17874.5
1455	17871.6
1456.06	17871.2
1457.13	17877.1
1458.2	17878.1
1459.26	17883.9
1460.33	17861
1461.39	17843.3
1462.46	17832.5
1463.52	17818.4
1464.59	17808.2
1465.65	17802.4
1466.72	17803.3
1467.78	17809.5
1468.85	17824.9
1469.91	17836.8
1470.98	17844.2
1472.04	17822.5
1473.1	17822.7
1474.17	17824.4
1475.23	17827.2
1476.3	17828.6
1477.36	17828.1
1478.42	17825
1479.48	17817.3
1480.55	17806.7
1481.61	17792.8
1482.67	17779.3
1483.73	17771.1
1484.8	17768.3
1485.86	17772.5
1486.92	17783.6
1487.98	17785.2
1489.04	17779.3
1490.1	17769.1
1491.17	17757.2
1492.23	17741.6
1493.29	17724.8
1494.35	17711.5
1495.41	17711
1496.47	17728.6
1497.53	17710
1498.59	17668.8
1499.65	17638.6
1500.71	17620.8
1501.77	17615.3
1502.83	17623
1503.88	17642.2
1504.94	17619.8
1506	17603.8
1507.06	17590.9
1508.12	17581.8
1509.18	17576.8
1510.23	17574.1
1511.29	17573.3
1512.35	17574.3
1513.41	17573.8
1514.47	17568.4
1515.52	17553
1516.58	17534
1517.64	17520.7
1518.69	17512.9
1519.75	17515.9
1520.81	17514.8
1521.86	17503.4
1522.92	17487.1
1523.97	17466
1525.03	17440.9
1526.08	17416.2
1527.14	17388.2
1528.2	17409.9
1529.25	17466.6
1530.31	17433.7
1531.36	17392.5
1532.42	17342.4
1533.47	17320.1
1534.52	17307.7
1535.58	17301.6
1536.63	17310.8
1537.69	17328
1538.74	17371.6
1539.79	17400.3
1540.84	17304
1541.9	17274.9
1542.95	17264.5
1544	17281.2
1545.06	17294
1546.11	17303.2
1547.16	17296.1
1548.21	17300.5
1549.27	17308.2
1550.32	17316.7
1551.37	17324.6
1552.42	17329.8
1553.47	17332.5
1554.52	17331.3
1555.57	17315.5
1556.62	17304
1557.67	17294.4
1558.72	17284.8
1559.77	17277.9
1560.82	17273.4
1561.87	17270.8
1562.92	17269.8
1563.97	17270.4
1565.02	17272.6
1566.07	17276.1
1567.12	17281.6
1568.17	17284.2
1569.22	17266.1
1570.27	17228.4
1571.32	17215
1572.36	17197.4
1573.41	17183.6
1574.46	17174.5
1575.51	17202.2
1576.56	17238.4
1577.6	17235.5
1578.65	17212.2
1579.7	17180.7
1580.74	17174.7
1581.79	17178.1
1582.84	17173.1
1583.88	17166.9
1584.93	17161.4
1585.98	17150.6
1587.02	17139.4
1588.07	17125.3
1589.11	17109.2
1590.16	17096.2
1591.2	17086.8
1592.25	17089.9
1593.29	17087.3
1594.34	17082.8
1595.38	17075.7
1596.43	17069.2
1597.47	17062.3
1598.52	17055.1
1599.56	17047.2
1600.6	17038.2
1601.65	17029
1602.69	17019.4
1603.73	17009.6
1604.78	17000.5
1605.82	16993.7
1606.86	16992.6
1607.91	16997.3
1608.95	16996.5
1609.99	16991
1611.03	16979.3
1612.08	16949.9
1613.12	16919
1614.16	16889.1
1615.2	16859.7
1616.24	16840.3
1617.28	16828.1
1618.32	16822.8
1619.36	16803.6
1620.41	16786.2
1621.45	16769.8
1622.49	16755.7
1623.53	16744
1624.57	16733.9
1625.61	16725.4
1626.65	16737.2
1627.69	16735.3
1628.73	16723.7
1629.76	16706.8
1630.8	16687.8
1631.84	16663.1
1632.88	16639.1
1633.92	16619.5
1634.96	16602.5
1636	16588.2
1637.03	16577.5
1638.07	16569.8
1639.11	16570.2
1640.15	16573
1641.19	16575.6
1642.22	16569.1
1643.26	16548.2
1644.3	16524.7
1645.33	16498.9
1646.37	16479.7
1647.41	16467.5
1648.44	16464.2
1649.48	16462.5
1650.52	16462.1
1651.55	16463.4
1652.59	16459
1653.62	16455.3
1654.66	16453.3
1655.69	16451.7
1656.73	16449.8
1657.76	16446.9
1658.8	16442.9
1659.83	16434.1
1660.87	16420.6
1661.9	16402.5
1662.93	16381.2
1663.97	16359.5
1665	16338.9
1666.04	16345.7
1667.07	16398.1
1668.1	16399.8
1669.14	16391.7
1670.17	16377.6
1671.2	16369
1672.23	16360.3
1673.27	16350.4
1674.3	16340.6
1675.33	16331.4
1676.36	16322.7
1677.39	16314.7
1678.43	16307.2
1679.46	16300.9
1680.49	16294.9
1681.52	16289.3
1682.55	16283.2
1683.58	16276
1684.61	16267.5
1685.64	16256.6
1686.67	16245.1
1687.7	16234.2
1688.73	16223.7
1689.76	16214
1690.79	16207.7
1691.82	16202
1692.85	16194.7
1693.88	16186.3
1694.91	16176.2
1695.94	16165.4
1696.97	16159
1698	16150.1
1699.02	16140.5
1700.05	16129
1701.08	16115.5
1702.11	16098
1703.14	16090.6
1704.16	16099.2
1705.19	16104.8
1706.22	16116.9
1707.25	16127.4
1708.27	16124.4
1709.3	16110.4
1710.33	16090.8
1711.35	16068
1712.38	16043.8
1713.41	16023
1714.43	15999
1715.46	15970.1
1716.48	15941.8
1717.51	15957.5
1718.53	15971.6
1719.56	15973.4
1720.58	15961.4
1721.61	15917.2
1722.63	15878.7
1723.66	15845.2
1724.68	15817.8
1725.71	15795.4
1726.73	15796.4
1727.75	15803.1
1728.78	15835.9
1729.8	15847.2
1730.83	15852.9
1731.85	15834.7
1732.87	15809.3
1733.89	15785.8
1734.92	15768.5
1735.94	15760.4
1736.96	15760.4
1737.98	15753.1
1739.01	15747.2
1740.03	15738.7
1741.05	15728.4
1742.07	15717.2
1743.09	15705.5
1744.12	15693.6
1745.14	15681.5
1746.16	15671
1747.18	15661.2
1748.2	15639.2
1749.22	15616.4
1750.24	15597.3
1751.26	15584.1
1752.28	15574
1753.3	15574.4
1754.32	15573.4
1755.34	15572.9
1756.36	15572.2
1757.38	15573.1
1758.4	15567.7
1759.42	15558.9
1760.44	15547
1761.45	15541.7
1762.47	15538.9
1763.49	15543.9
1764.51	15549.1
1765.53	15539.1
1766.55	15526.7
1767.56	15506.2
1768.58	15479.7
1769.6	15444.4
1770.61	15410.5
1771.63	15396.3
1772.65	15392.3
1773.67	15398.3
1774.68	15415.4
1775.7	15425.9
1776.72	15432.2
1777.73	15427.8
1778.75	15427.1
1779.76	15405
1780.78	15376.5
1781.79	15355.1
1782.81	15338.8
1783.83	15342.6
1784.84	15342
1785.85	15337.5
1786.87	15325.3
1787.88	15312.2
1788.9	15304.4
1789.91	15296
1790.93	15287.2
1791.94	15278.3
1792.95	15269.2
1793.97	15260.1
1794.98	15251.5
1796	15243.3
1797.01	15235.9
1798.02	15229.7
1799.03	15224.2
1800.05	15217.8
1801.06	15198.8
1802.07	15182
1803.08	15165.3
1804.1	15150.2
1805.11	15131.4
1806.12	15114.4
1807.13	15097.7
1808.14	15091.3
1809.15	15093.2
1810.17	15082.4
1811.18	15042.5
1812.19	15025.6
1813.2	15014.4
1814.21	15003.5
1815.22	14991
1816.23	14979.1
1817.24	14965.1
1818.25	14954.4
1819.26	14944.8
1820.27	14937.1
1821.28	14929.5
1822.29	14926.9
1823.3	14926.3
1824.3	14922.7
1825.31	14910.4
1826.32	14891.7
1827.33	14862.1
1828.34	14823.1
1829.35	14790.7
1830.35	14764.9
1831.36	14752.7
1832.37	14754.8
1833.38	14758.2
1834.38	14757.3
1835.39	14753.8
1836.4	14749.4
1837.41	14743.3
1838.41	14735.2
1839.42	14725.9
1840.43	14715.2
1841.43	14703.5
1842.44	14691.1
1843.44	14677.9
1844.45	14664.3
1845.46	14649.6
1846.46	14634.2
1847.47	14616
1848.47	14597
1849.48	14578.6
1850.48	14561.1
1851.49	14545.2
1852.49	14536.2
1853.49	14527.9
1854.5	14521.9
1855.5	14516.3
1856.51	14510.9
1857.51	14505.4
1858.51	14499.6
1859.52	14493.4
1860.52	14486.2
1861.52	14478.1
1862.53	14469
1863.53	14457.7
1864.53	14442.3
1865.54	14426.2
1866.54	14412.2
1867.54	14400.9
1868.54	14392.7
1869.54	14388
1870.55	14391.8
1871.55	14398.2
1872.55	14406.4
1873.55	14413.4
1874.55	14406
1875.55	14409.3
1876.55	14394.8
1877.55	14361.1
1878.55	14321.5
1879.55	14278.6
1880.56	14250.6
1881.55	14254.8
1882.56	14247.4
1883.55	14242.5
1884.55	14239.4
1885.55	14232.1
1886.55	14226.7
1887.55	14215
1888.55	14205.6
1889.55	14197
1890.55	14198.8
1891.55	14209.5
1892.55	14221
1893.54	14221.2
1894.54	14210.5
1895.54	14182.8
1896.54	14148.9
1897.54	14119
1898.53	14096.4
1899.53	14079.8
1900.53	14067.7
1901.52	14062.9
1902.52	14064.1
1903.52	14069.6
1904.51	14074.2
1905.51	14073.1
1906.51	14068.9
1907.5	14061
1908.5	14049.1
1909.49	14033.2
1910.49	14013
1911.49	13989.1
1912.48	13961
1913.48	13931.4
1914.47	13907.1
1915.46	13890.9
1916.46	13883.2
1917.45	13877.3
1918.45	13872.2
1919.44	13867.9
1920.44	13863.9
1921.43	13859.9
1922.43	13855.1
1923.42	13845.7
1924.41	13836.6
1925.41	13822.9
1926.4	13807.4
1927.39	13787.1
1928.38	13762.9
1929.38	13739.1
1930.37	13719.7
1931.36	13717.3
1932.35	13711.6
1933.35	13706.6
1934.34	13705.4
1935.33	13677.7
1936.32	13667.8
1937.31	13661.4
1938.3	13657.4
1939.29	13662.9
1940.29	13675.5
1941.28	13694.9
1942.27	13683
1943.26	13444
1944.25	13503.9
1945.24	13546.4
1946.23	13574.3
1947.22	13583.3
1948.21	13588.3
1949.2	13580.4
1950.19	13565
1951.18	13543.4
1952.17	13515.2
1953.16	13482.7
1954.14	13454
1955.13	13427.1
1956.12	13398.3
1957.11	13369
1958.1	13356.4
1959.09	13341.8
1960.07	13332.7
1961.06	13340.9
1962.05	13347.1
1963.04	13348.1
1964.02	13347.2
1965.01	13340.3
1966	13319.5
1966.99	13299.2
1967.97	13283.4
1968.96	13267.4
1969.95	13257
1970.93	13248.8
1971.92	13243.5
1972.9	13240.4
1973.89	13239.1
1974.88	13238.8
1975.86	13225.6
1976.85	13213.6
1977.83	13199.6
1978.82	13184.3
1979.8	13167.1
1980.79	13150.6
1981.77	13139
1982.76	13130.2
1983.74	13123.4
1984.72	13105.8
1985.71	13079.1
1986.69	13072.6
1987.67	13070.9
1988.66	13073.6
1989.64	13070
1990.62	13057.8
1991.61	13043.8
1992.59	13034.3
1993.57	13025
1994.56	13015.8
1995.54	13006.8
1996.52	12998.2
1997.5	12989.8
1998.49	12981.8
1999.47	12973.7
2000.45	12960.8
2001.43	12934.2
2002.41	12910.2
2003.39	12888.1
2004.38	12874.5
2005.36	12875.7
2006.34	12873.8
2007.32	12883.6
2008.3	12886.4
2009.28	12886.3
2010.26	12864.7
2011.24	12843
2012.22	12821.1
2013.2	12802.1
2014.18	12786.4
2015.16	12773.8
2016.14	12763.3
2017.12	12755.3
2018.1	12749.5
2019.07	12744.4
2020.05	12731.8
2021.03	12720.1
2022.01	12701.8
2022.99	12693.7
2023.97	12684.5
2024.95	12676.4
2025.92	12668.4
2026.9	12660.7
2027.88	12653.5
2028.86	12645.7
2029.83	12627.4
2030.81	12611.3
2031.79	12586.3
2032.76	12581.3
2033.74	12570.4
2034.72	12562.9
2035.69	12551.4
2036.67	12531.4
2037.65	12519.5
2038.62	12508.5
2039.6	12498.7
2040.57	12490.2
2041.55	12482.9
2042.52	12476.9
2043.5	12471.5
2044.47	12463.5
2045.45	12455
2046.42	12441.4
2047.4	12432
2048.37	12402.6
2049.35	12369.4
2050.32	12340.5
2051.29	12323.2
2052.27	12306.8
2053.24	12323.1
2054.21	12320.6
2055.19	12315.6
2056.16	12311.2
2057.13	12304.5
2058.11	12294.7
2059.08	12282.1
2060.05	12267.1
2061.02	12250.4
2062	12234.2
2062.97	12217.7
2063.94	12203.7
2064.91	12191.7
2065.89	12185.6
2066.86	12178
2067.83	12172.5
2068.8	12168.2
2069.77	12160.6
2070.74	12149.6
2071.71	12120.3
2072.68	12087.1
2073.65	12057.1
2074.62	12035.2
2075.59	12029.8
2076.56	12040.3
2077.53	12050.1
2078.5	12059.1
2079.47	12021.8
2080.44	11991.2
2081.41	11966.6
2082.38	11948.4
2083.35	11941
2084.32	11947.7
2085.29	11941.5
2086.26	11933.7
2087.23	11923.2
2088.19	11911.3
2089.16	11892
2090.13	11869.2
2091.1	11848.1
2092.07	11833
2093.03	11846.4
2094	11850.1
2094.97	11840.1
2095.94	11796.2
2096.9	11771.6
2097.87	11748.7
2098.84	11733
2099.8	11719.2
2100.77	11722.5
2101.74	11720
2102.7	11725.8
2103.67	11718.5
2104.63	11689.8
2105.6	11682.1
2106.56	11676.8
2107.53	11673.8
2108.49	11673.1
2109.46	11674.6
2110.42	11673.7
2111.39	11628.7
2112.35	11614.8
2113.32	11603.8
2114.28	11593.1
2115.25	11582.5
2116.21	11572.6
2117.17	11562.8
2118.14	11553.8
2119.1	11545
2120.07	11536.2
2121.03	11527.3
2121.99	11516.3
2122.96	11504.6
2123.92	11487
2124.88	11470.5
2125.84	11456.2
2126.81	11443.4
2127.77	11446.1
2128.73	11450.4
2129.69	11455.3
2130.65	11446.5
2131.62	11418.5
2132.58	11382.2
2133.54	11345.5
2134.5	11327.9
2135.46	11322.5
2136.42	11328.4
2137.38	11337.3
2138.34	11336.3
2139.3	11335
2140.26	11321
2141.22	11302.8
2142.18	11283.1
2143.14	11262.4
2144.1	11245.6
2145.06	11245.6
2146.02	11239.5
2146.98	11248.9
2147.94	11251.5
2148.9	11250.7
2149.86	11233
2150.82	11218.7
2151.78	11195.7
2152.74	11174.7
2153.69	11164.1
2154.65	11147.7
2155.61	11138
2156.57	11139.2
2157.53	11130.1
2158.48	11115.8
2159.44	11089
2160.4	11058.9
2161.36	11024.9
2162.31	11001
2163.27	10996.2
2164.23	10997.9
2165.18	10999.2
2166.14	10999.5
2167.1	11000.5
2168.05	10981.2
2169.01	10955.1
2169.96	10922.6
2170.92	10888.5
2171.88	10859.1
2172.83	10833.3
2173.79	10811.5
2174.74	10793.3
2175.7	10778.8
2176.65	10767.9
2177.6	10744.3
2178.56	10717.8
2179.51	10714.7
2180.47	10718.3
2181.42	10719.5
2182.38	10714
2183.33	10704.2
2184.28	10691.2
2185.24	10675.4
2186.19	10657.8
2187.14	10638.4
2188.1	10617.7
2189.05	10599.1
2190	10582.9
2190.96	10569.8
2191.91	10558.3
2192.86	10549.5
2193.81	10544.4
2194.76	10541.7
2195.72	10541.1
2196.67	10541.2
2197.62	10531.1
2198.57	10515.6
2199.52	10497.9
2200.47	10479.9
2201.43	10461.3
2202.38	10443.6
2203.33	10427.7
2204.28	10413.1
2205.23	10400.2
2206.18	10389.4
2207.13	10381.7
2208.08	10381
2209.03	10381.8
2209.98	10385.3
2210.93	10381.5
2211.88	10363.6
2212.83	10343.1
2213.78	10322.1
2214.73	10303
2215.67	10293.6
2216.62	10295.8
2217.57	10306.2
2218.52	10306.3
2219.47	10307.4
2220.42	10299
2221.37	10277.9
2222.31	10250.9
2223.26	10239
2224.21	10228.9
2225.16	10220.3
2226.1	10213.5
2227.05	10205.6
2228	10198
2228.94	10191
2229.89	10184.3
2230.84	10177.6
2231.78	10171.3
2232.73	10164.7
2233.68	10159.6
2234.62	10157.6
2235.57	10155.4
2236.51	10153.5
2237.46	10150.1
2238.41	10146.4
2239.35	10136.7
2240.3	10127.4
2241.24	10120.5
2242.19	10114.2
2243.13	10110.7
2244.07	10109.1
2245.02	10106.4
2245.96	10102.2
2246.91	10095.2
2247.85	10088.5
2248.8	10080.6
2249.74	10072.6
2250.68	10065.1
2251.63	10058.8
2252.57	10054.1
2253.51	10052.5
2254.46	10054.7
2255.4	10058.7
2256.34	10068
2257.28	10075.6
2258.23	10082.3
2259.17	10076.1
2260.11	10067.8
2261.05	10042.8
2262	10020.5
2262.94	9999.9
2263.88	9991.19
2264.82	9995.43
2265.76	9997.66
2266.7	9998.43
2267.64	9995.43
2268.58	9988.59
2269.53	9980.96
2270.47	9972.01
2271.41	9961.81
2272.35	9950.76
2273.29	9941.38
2274.23	9932.45
2275.17	9923.51
2276.11	9921
2277.05	9922.55
2277.99	9927.65
2278.93	9930.51
2279.86	9932.81
2280.8	9933.5
2281.74	9932.02
2282.68	9928.83
2283.62	9927.93
2284.56	9929.91
2285.5	9936.08
2286.44	9939.45
2287.37	9937.15
2288.31	9927.49
2289.25	9911.44
2290.19	9887.91
2291.12	9871.03
2292.06	9864.25
2293	9867.22
2293.94	9873.26
2294.87	9871.94
2295.81	9871.26
2296.75	9866.3
2297.68	9848.55
2298.62	9835.38
2299.55	9827
2300.49	9821.54
2301.43	9816.55
2302.36	9812.76
2303.3	9811.71
2304.23	9808.97
2305.17	9800.34
2306.1	9786.42
2307.04	9770.77
2307.98	9756.03
2308.91	9743.03
2309.84	9729.47
2310.78	9719.78
2311.71	9716.22
2312.65	9718.02
2313.58	9714.87
2314.52	9705.33
2315.45	9693.41
2316.38	9675.5
2317.32	9656.18
2317.72	9647.6
2318.66	9637.38
2319.6	9633.66
2320.54	9638.61
2321.48	9637.97
2322.41	9638.71
2323.35	9627.93
2324.29	9608.04
2325.23	9587.37
2326.16	9570.43
2327.1	9555.52
2328.04	9545.8
2328.97	9538.49
2329.91	9534.05
2330.85	9532.52
2331.78	9534.22
2332.72	9538.83
2333.66	9543.71
2334.59	9541.47
2335.53	9519.39
2336.46	9501.81
2337.4	9480.26
2338.33	9461.33
2339.27	9467.56
2340.2	9471.13
2341.14	9476.72
2342.07	9484.69
2343.01	9484.58
2343.94	9469.98
2344.88	9446.19
2345.81	9429.45
2346.75	9415.27
2347.68	9406.88
2348.61	9410.65
2349.55	9408.84
2350.48	9404.67
2351.41	9399.54
2352.35	9389.89
2353.28	9371.02
2354.21	9353.98
2355.15	9337.26
2356.08	9319.92
2357.01	9313.34
2357.94	9316.58
2358.88	9321.01
2359.81	9333.01
2360.74	9337.05
2361.67	9337.66
2362.6	9333
2363.54	9329.36
2364.47	9301.33
2365.4	9245.23
2366.33	9254.96
2367.26	9283.48
2368.19	9296.16
2369.12	9289.82
2370.05	9276.92
2370.98	9274.54
2371.91	9270
2372.84	9264.27
2373.77	9256.88
2374.7	9248.48
2375.63	9239.54
2376.56	9232.56
2377.49	9233.53
2378.42	9224.41
2379.35	9214
2380.28	9200.46
2381.21	9184.69
2382.14	9169.43
2383.07	9151.24
2384	9137.33
2384.92	9128.88
2385.85	9131.78
2386.78	9142.77
2387.71	9158.48
2388.64	9165.85
2389.56	9165.75
2390.49	9155.04
2391.42	9148.57
2392.35	9131.58
2393.27	9119.75
2394.2	9105.7
2395.13	9101.76
2396.05	9097.26
2396.98	9092.94
2397.91	9090.92
2398.83	9087.13
2399.76	9080.01
2400.69	9073.01
2401.61	9065.52
2402.54	9057.53
2403.46	9049.22
2404.39	9041.2
2405.31	9033.39
2406.24	9025.31
2407.17	9017.37
2408.09	9009.04
2409.01	9001.9
2409.94	8996.2
2410.86	8990.81
2411.79	8985.56
2412.71	8978.32
2413.64	8968.43
2414.56	8954.58
2415.49	8940.09
2416.41	8924.79
2417.33	8909.27
2418.26	8899.82
2419.18	8900.67
2420.1	8901.57
2421.03	8900.09
2421.95	8892.45
2422.87	8885.22
2423.79	8873.12
2424.72	8854.42
2425.64	8834.61
2426.56	8815.87
2427.48	8799.83
2428.41	8788.04
2429.33	8778.18
2430.25	8769.93
2431.17	8766.74
2432.09	8765.16
2433.01	8765.04
2433.93	8764.56
2434.86	8757.68
2435.78	8750.62
2436.7	8741.62
2437.62	8730.59
2438.54	8717.49
2439.46	8701.87
2440.38	8711.47
2441.3	8728.02
2442.22	8733.7
2443.14	8704.27
2444.06	8615.84
2444.98	8609.79
2445.9	8623.82
2446.82	8621.61
2447.73	8618.09
2448.65	8612.93
2449.57	8606.18
2450.49	8598.04
2451.41	8587.95
2452.33	8576.49
2453.25	8563.1
2454.17	8550.67
2455.08	8540.88
2456	8537.79
2456.92	8546.49
2457.84	8550.4
2458.75	8554.55
2459.67	8545.67
2460.59	8527.86
2461.51	8502.83
2462.42	8471.46
2463.34	8467.73
2464.26	8471.64
2465.17	8472.02
2466.09	8463.94
2467	8451.61
2467.92	8441.26
2468.84	8433.14
2469.75	8428.15
2470.67	8425.47
2471.58	8425.39
2472.5	8423.81
2473.42	8416.6
2474.33	8407.38
2475.25	8392.26
2476.16	8377.73
2477.08	8376.57
2477.99	8379.88
2478.9	8386.3
2479.82	8392.01
2480.73	8387.68
2481.65	8382.76
2482.56	8367.49
2483.47	8345.95
2484.39	8325.51
2485.3	8307.52
2486.22	8293.15
2487.13	8282.38
2488.04	8274.19
2488.96	8269.8
2489.87	8268.27
2490.78	8270.53
2491.69	8275.73
2492.61	8283.8
2493.52	8292.53
2494.43	8288.99
2495.34	8285.5
2496.25	8280.73
2497.17	8270.13
2498.08	8257.58
2498.99	8241.42
2499.9	8232.6
2500.81	8241.48
2501.72	8244.32
2502.63	8245.15
2503.55	8245.29
2504.46	8246.29
2505.37	8232.59
2506.28	8219.45
2507.19	8212.23
2508.1	8206.37
2509.01	8204.66
2509.92	8201.72
2510.83	8194.1
2511.74	8188.13
2512.65	8180.01
2513.56	8171.58
2514.47	8161.15
2515.37	8158.06
2516.28	8161.25
2517.19	8163.3
2518.1	8164.1
2519.01	8163.92
2519.92	8168.85
2520.83	8160.52
2521.73	8151.13
2522.64	8127.64
2523.55	8106.06
2524.46	8083.2
2525.37	8117.49
2526.27	8128.93
2527.18	8112.34
2528.09	8098.62
2529	8082.85
2529.9	8058.15
2530.81	8049.93
2531.72	8052.56
2532.62	8056.99
2533.53	8066.88
2534.44	8070.04
2535.34	8064.65
2536.25	8058.6
2537.15	8049.07
2538.06	8036.19
2538.96	8020.25
2539.87	8001.35
2540.78	7982.21
2541.68	7966
2542.59	7959.66
2543.49	7958.76
2544.4	7957.09
2545.3	7958.41
2546.21	7954.46
2547.11	7949.12
2548.01	7942.95
2548.92	7935.73
2549.82	7927.41
2550.73	7918.47
2551.63	7909.25
2552.53	7900.34
2553.44	7891.11
2554.34	7880.91
2555.24	7864.15
2556.15	7845.16
2557.05	7832.22
2557.95	7824.28
2558.86	7825.61
2559.76	7825.69
2560.66	7832.05
2561.56	7835.21
2562.46	7836.88
2563.37	7836.02
2564.27	7823.96
2565.17	7807.98
2566.07	7789.03
2566.97	7770.85
2567.88	7752.83
2568.78	7736.48
2569.68	7726.24
2570.58	7716.42
2571.48	7707.58
2572.38	7699.68
2573.28	7692.04
2574.18	7684.2
2575.08	7674.68
2575.98	7664.24
2576.88	7656.98
2577.78	7652.47
2578.68	7656.95
2579.58	7662.44
2580.48	7669.37
2581.38	7672.9
2582.28	7671.96
2583.18	7664.24
2584.08	7649.94
2584.98	7627.2
2585.88	7608.05
2586.77	7596.88
2587.67	7592.34
2588.57	7594.3
2589.47	7589.2
2590.37	7578.57
2591.27	7565.15
2592.16	7536.83
2593.06	7516.11
2593.96	7499.29
2594.86	7487.06
2595.75	7480.06
2596.65	7478.73
2597.55	7484.05
2598.45	7488.26
2599.34	7486.37
2600.24	7481.63
2601.13	7466.23
2602.03	7449.17
2602.93	7431.75
2603.82	7421.69
2604.72	7412.87
2605.62	7408.77
2606.51	7408.35
2607.41	7410.8
2608.3	7415.28
2609.2	7420.72
2610.09	7421.31
2610.99	7411.42
2611.88	7401.37
2612.78	7387.8
2613.67	7370.7
2614.57	7348.87
2615.46	7327.76
2616.36	7323.82
2617.25	7317.4
2618.14	7314.63
2619.04	7310.29
2619.93	7304.96
2620.83	7300.98
2621.72	7298.36
2622.61	7296.22
2623.5	7293.96
2624.4	7291.4
2625.29	7287.53
2626.18	7280.23
2627.08	7272.55
2627.97	7263.56
2628.86	7253.43
2629.75	7242.02
2630.65	7229.6
2631.54	7215.4
2632.43	7202.62
2633.32	7190.7
2634.21	7181.94
2635.11	7176.77
2636	7172.59
2636.89	7168.76
2637.78	7165.65
2638.67	7161.89
2639.56	7153.6
2640.45	7144.92
2641.34	7136.5
2642.23	7127.95
2643.12	7119.28
2644.01	7110.32
2644.9	7100.93
2645.79	7090.94
2646.68	7083.08
2647.57	7078.9
2648.46	7072.33
2649.35	7062.78
2650.24	7050.47
2651.13	7035.14
2652.02	7016.8
2652.91	6995.71
2653.8	6985.67
2654.69	6972.85
2655.58	6969.27
2656.46	6978.19
2657.35	6985.68
2658.24	6987.27
2659.13	6984.58
2660.02	6969.81
2660.9	6955.52
2661.79	6944.28
2662.68	6935.85
2663.57	6934.1
2664.45	6951.88
2665.34	6952.53
2666.23	6949.99
2667.11	6939.46
2668	6932.59
2668.89	6924.18
2669.77	6915.34
2670.66	6905.97
2671.55	6896.37
2672.43	6886.45
2673.32	6876.33
2674.21	6866.03
2675.09	6855.25
2675.98	6843.45
2676.86	6835.51
2677.75	6831.85
2678.63	6828.9
2679.52	6823.38
2680.4	6816.33
2681.29	6807.12
2682.17	6795.11
2683.06	6780.75
2683.94	6765.35
2684.82	6748.63
2685.71	6735.2
2686.59	6729.26
2687.48	6722.93
2688.36	6717.34
2689.24	6711.77
2690.13	6706.7
2691.01	6701.44
2691.89	6695.38
2692.78	6688.95
2693.66	6682.37
2694.54	6675.2
2695.43	6667.42
2696.31	6657.04
2697.19	6638.06
2698.07	6621.08
2698.96	6609.67
2699.84	6602.44
2700.72	6599.72
2701.6	6600.37
2702.48	6606.75
2703.36	6611.66
2704.25	6606.38
2705.13	6601.98
2706.01	6584.47
2706.89	6578.28
2707.77	6572.83
2708.65	6572.3
2709.53	6569.81
2710.41	6565.99
2711.29	6561.38
2712.17	6556.01
2713.05	6550.21
2713.93	6544.65
2714.81	6538.52
2715.69	6534.52
2716.57	6532.97
2717.45	6529.85
2718.33	6521.22
2719.21	6500
2720.09	6481.03
2720.97	6464.34
2721.85	6458.37
2722.73	6459.62
2723.61	6456.24
2724.48	6453.39
2725.36	6452.96
2726.24	6452.97
2727.12	6455.17
2728	6457.56
2728.88	6460.93
2729.75	6461.98
2730.63	6443.99
2731.51	6434.12
2732.39	6419.31
2733.26	6415.28
2734.14	6420.63
2735.02	6433.15
2735.89	6440.06
2736.77	6424.48
2737.65	6387.78
2738.52	6352.74
2739.4	6314.48
2740.28	6374.82
2741.15	6382.71
2742.03	6381.3
2742.9	6369.04
2743.78	6356.37
2744.65	6340.98
2745.53	6330.55
2746.41	6319.79
2747.28	6312.68
2748.16	6310.08
2749.03	6308.88
2749.91	6306.51
2750.78	6303.59
2751.66	6297.92
2752.53	6291.75
2753.4	6285.17
2754.28	6278.51
2755.15	6271.97
2756.02	6266.05
2756.9	6263.79
2757.77	6260.07
2758.65	6256.21
2759.52	6251.63
2760.39	6246.17
2761.27	6234.68
2762.14	6212.77
2763.01	6200.7
2763.88	6189
2764.76	6188.79
2765.63	6190.44
2766.5	6195.36
2767.37	6190.56
2768.25	6181.18
2769.12	6173.89
2769.99	6168.26
2770.86	6163.66
2771.73	6159.78
2772.61	6156.3
2773.48	6153.27
2774.35	6149.83
2775.22	6143.62
2776.09	6131.4
2776.96	6110.06
2777.83	6096.43
2778.7	6087.03
2779.57	6080.39
2780.44	6074.76
2781.31	6076.33
2782.18	6077.12
2783.05	6076.77
2783.92	6075.47
2784.79	6073.54
2785.66	6065.57
2786.53	6058.44
2787.4	6052.27
2788.27	6046.62
2789.14	6041.4
2790.01	6041.53
2790.88	6038.53
2791.75	6037.29
2792.62	6034.6
2793.48	6032.11
2794.35	6024.51
2795.22	6009.35
2796.09	5995.69
2796.96	5981.52
2797.82	5966.27
2798.69	5959.03
2799.56	5949.38
2800.43	5949.29
2801.29	5952.03
2802.16	5956.38
2803.03	5955.43
2803.9	5951.36
2804.76	5946.09
2805.63	5939.31
2806.5	5930.23
2807.36	5919.86
2808.23	5908.92
2809.09	5902.16
2809.96	5907.96
2810.83	5919.28
2811.69	5913.56
2812.56	5890.7
2813.42	5871.63
2814.29	5849.29
2815.15	5861.97
2816.02	5864.5
2816.88	5862.69
2817.75	5858.88
2818.61	5848.34
2819.48	5842.54
2820.34	5834.32
2821.21	5822.04
2822.07	5809.15
2822.94	5812.91
2823.8	5818.41
2824.66	5822.31
2825.53	5824.82
2826.39	5825.62
2827.26	5824.13
2828.12	5820.67
2828.98	5814.95
2829.85	5807.29
2830.71	5797.58
2831.57	5786.09
2832.43	5772.6
2833.3	5759.81
2834.16	5750.59
2835.02	5743
2835.88	5742.85
2836.75	5744.16
2837.61	5745.1
2838.47	5740.7
2839.33	5735.21
2840.19	5731.24
2841.06	5719.46
2841.92	5702.69
2842.78	5694.01
2843.64	5705.63
2844.5	5717.24
2845.36	5726.35
2846.22	5732.1
2847.08	5734.38
2847.94	5725.11
2848.81	5707.46
2849.67	5689
2850.53	5677.58
2851.39	5668.94
2852.25	5665.61
2853.11	5658.15
2853.97	5648.29
2854.82	5639.52
2855.68	5631.06
2856.54	5623.82
2857.4	5617.06
2858.26	5616.85
2859.12	5616.85
2859.98	5616.4
2860.84	5614.66
2861.7	5610.91
2862.56	5604.59
2863.41	5601.23
2864.27	5601.38
2865.13	5603.54
2865.99	5605.76
2866.85	5608.16
2867.7	5604.13
2868.56	5593.26
2869.42	5572.99
2870.28	5556.51
2871.13	5541.44
2871.99	5530.2
2872.85	5530.48
2873.7	5530.46
2874.56	5529.81
2875.42	5528.44
2876.27	5525.97
2877.13	5522.88
2877.99	5518.89
2878.84	5514.15
2879.7	5508.54
2880.56	5502.41
2881.41	5495.72
2882.27	5488.6
2883.12	5481.05
2883.98	5473.67
2884.83	5466.93
2885.69	5460.83
2886.54	5456.28
2887.4	5452.61
2888.25	5451.02
2889.11	5449.16
2889.96	5443.02
2890.82	5432.87
2891.67	5417.23
2892.52	5400.92
2893.38	5390.25
2894.23	5384.46
2895.09	5378.68
2895.94	5380.12
2896.79	5383.56
2897.65	5386.42
2898.5	5385.68
2899.35	5384.14
2900.21	5381.04
2901.06	5375.74
2901.91	5368.91
2902.76	5360.24
2903.62	5351.02
2904.47	5347.98
2905.32	5345.11
2906.17	5338.54
2907.03	5329.52
2907.88	5321.14
2908.73	5310.63
2909.58	5299.47
2910.43	5289.02
2911.28	5280.1
2912.14	5277.26
2912.99	5280.38
2913.84	5279.52
2914.69	5268.73
2915.54	5250.82
2916.39	5243.31
2917.24	5236.78
2918.09	5232.86
2918.94	5227.91
2919.79	5221.56
2920.64	5214.19
2921.49	5205.87
2922.34	5196.58
2923.19	5186.73
2924.04	5175.92
2924.89	5173.42
2925.74	5171.57
2926.59	5173.42
2927.44	5178.2
2928.29	5186.93
2929.14	5184.01
2929.98	5181.63
2930.83	5174.62
2931.68	5161.36
2932.53	5144.69
2933.38	5131.67
2934.23	5118.79
2935.07	5116.56
2935.92	5111.65
2936.77	5102.59
2937.62	5094.21
2938.47	5087.33
2939.31	5074.14
2940.16	5064.79
2941.01	5065.78
2941.85	5071.42
2942.7	5070.26
2943.55	5070.21
2944.39	5062.27
2945.24	5055.18
2946.09	5050.11
2946.93	5039.84
2947.78	5035.58
2948.63	5034.04
2949.47	5031.92
2950.32	5029.8
2951.16	5026.91
2952.01	5023.56
2952.85	5020.01
2953.7	5015.93
2954.55	5011.73
2955.39	5006.76
2956.24	5001.33
2957.08	4996.32
2957.92	4991.81
2958.77	4992.33
2959.61	4987.05
2960.46	4981.48
2961.3	4975.67
2962.15	4968.67
2962.99	4961.35
2963.83	4952.02
2964.68	4947.27
2965.52	4951.17
2966.37	4954.26
2967.21	4957.51
2968.05	4955.49
2968.9	4951.61
2969.74	4946.98
2970.58	4941.2
2971.42	4934.2
2972.27	4926.29
2973.11	4917.52
2973.95	4906.82
2974.79	4895.42
2975.64	4884.15
2976.48	4875.87
2977.32	4870.55
2978.16	4867.75
2979	4866.44
2979.85	4867.42
2980.69	4870.18
2981.53	4872.65
2982.37	4871.16
2983.21	4867.24
2984.05	4862.78
2984.89	4858.89
2985.73	4854.07
2986.57	4848.55
2987.41	4842.57
2988.25	4836.44
2989.1	4830.22
2989.94	4825.46
2990.77	4826.8
2991.62	4833.84
2992.45	4833.29
2993.29	4830.48
2994.13	4825.41
2994.97	4817.59
2995.81	4806.12
2996.65	4792.05
2997.49	4773.72
2998.33	4754.33
2999.17	4777.62
