200.833	24393.3
202.102	24432.3
203.371	24427.8
204.639	24427.1
205.907	24431.8
207.175	24436.8
208.442	24468.6
209.71	24458.4
210.977	24451.7
212.244	24454.7
213.511	24477.8
214.777	24515
216.042	24554.3
217.309	24591.1
218.575	24626.7
219.84	24661.7
221.106	24692.9
222.371	24723.3
223.635	24749.8
224.9	24774.7
226.165	24800.5
227.429	24830.9
228.694	24878.6
229.956	24926.5
231.22	25002.8
232.484	25093.7
233.747	25167.4
235.011	25219.2
236.272	25249.4
237.535	25257.6
238.798	25308.9
240.06	25353.9
241.321	25394.7
242.583	25430.6
243.845	25461.1
245.105	25486.6
246.367	25506.4
247.628	25535.2
248.888	25655.3
250.149	25650.4
251.409	25679.6
252.67	25699.8
253.928	25711.8
255.189	25713.9
256.447	25705.4
257.707	25686.2
258.966	25668.6
260.224	25665.8
261.483	25675.5
262.742	25699.1
263.999	25735
265.257	25784.8
266.514	25832.8
267.772	25876.1
269.028	25914.8
270.286	25948.1
271.543	25974
272.799	25996
274.056	26015.8
275.311	26036.6
276.568	26058
277.823	26083.1
279.079	26109
280.333	26136.7
281.589	26167.4
282.843	26200.1
284.099	26234.9
285.352	26270.3
286.607	26296.4
287.86	26310.9
289.114	26323
290.368	26346.7
291.621	26372.1
292.875	26397.6
294.127	26424.7
295.38	26452.2
296.632	26476.5
297.884	26500.5
299.137	26516.5
300.388	26522.4
301.641	26550.6
302.891	26582.5
304.142	26598.9
305.394	26599.8
306.644	26599.5
307.894	26549.7
309.146	26575.9
310.395	26612.1
311.645	26628.4
312.895	26633
314.144	26638.6
315.393	26650.4
316.642	26661.3
317.892	26687.8
319.14	26721
320.388	26747
321.637	26762.9
322.885	26786
324.132	26795.7
325.38	26793.8
326.628	26794.2
327.875	26815.5
329.122	26853.3
330.368	26901.4
331.614	26955.7
332.862	26985.5
334.108	27011.7
335.353	27021.2
336.599	27017.8
337.844	27034.8
339.089	27041.6
340.335	27078.5
341.58	27125.6
342.824	27167.9
344.068	27203.4
345.312	27231.7
346.556	27250.9
347.8	27263.8
349.043	27273.4
350.286	27278.6
351.53	27280.7
352.774	27291.3
354.016	27297.1
355.259	27301.1
356.501	27302.7
357.743	27302.4
358.985	27301
360.227	27302.3
361.468	27303.6
362.709	27320.8
363.95	27351.2
365.191	27371.3
366.432	27383.7
367.672	27387
368.912	27381.4
370.152	27366.9
371.392	27353.2
372.632	27363.5
373.871	27380.5
375.11	27397.5
376.348	27412.2
377.587	27421.5
378.825	27433.3
380.064	27446.1
381.302	27459.8
382.54	27472.7
383.778	27486.8
385.016	27502.2
386.253	27520.4
387.489	27541.6
388.726	27565.7
389.963	27596.3
391.199	27640.6
392.436	27688.6
393.672	27732.6
394.907	27736.6
396.142	27720.2
397.378	27705.8
398.614	27695.6
399.849	27690.6
401.082	27696.5
402.317	27707.3
403.552	27725
404.786	27750.4
406.019	27783.7
407.253	27828.3
408.487	27899.4
409.721	27857.1
410.953	27850.8
412.186	27845.9
413.419	27842.6
414.651	27841.7
415.883	27843.7
417.116	27848.5
418.347	27854.9
419.579	27862.6
420.811	27870.8
422.041	27878
423.272	27885.8
424.504	27894.7
425.733	27904.6
426.964	27917.7
428.194	27932
429.424	27967.5
430.654	27990.2
431.883	28001
433.113	28001.6
434.341	27982.1
435.571	27968
436.799	27965.2
438.028	27969
439.257	27976.7
440.484	27993.8
441.713	28032.1
442.94	28068.2
444.168	28105.5
445.394	28134.2
446.622	28151
447.848	28163.3
449.076	28172.7
450.301	28174.9
451.528	28173.4
452.754	28167.1
453.979	28164.7
455.205	28188.9
456.43	28198.8
457.656	28203.3
458.88	28203
460.106	28199.1
461.33	28190
462.554	28176.8
463.779	28160.4
465.002	28145.6
466.225	28154.1
467.45	28161
468.672	28167.1
469.895	28171.2
471.119	28173.4
472.341	28174.4
473.563	28173.7
474.786	28172.5
476.008	28171.6
477.229	28177.4
478.452	28198.6
479.673	28191.4
480.894	28175.6
482.115	28148.9
483.337	28131.1
484.557	28127.4
485.777	28114.6
486.997	28124.1
488.218	28123.4
489.438	28114.2
490.657	28103.9
491.876	28095.3
493.096	28088
494.315	28082.7
495.533	28079.4
496.752	28079
497.97	28080.9
499.188	28085.9
500.407	28094.3
501.625	28105.8
502.842	28125.6
504.059	28147.5
505.276	28166.9
506.493	28181.1
507.71	28179.7
508.926	28176
510.142	28164.7
511.358	28136.8
512.575	28123.9
513.791	28129.8
515.006	28153.4
516.222	28171.9
517.437	28190.6
518.651	28208
519.866	28224.2
521.081	28238.1
522.295	28250
523.509	28260.4
524.723	28268.5
525.937	28274.9
527.15	28279.7
528.363	28283.6
529.576	28286.7
530.789	28288.1
532.002	28289.4
533.215	28301.4
534.426	28339
535.638	28380.5
536.85	28407.5
538.061	28425.2
539.273	28435.7
540.484	28441.6
541.695	28441.1
542.906	28436.6
544.117	28427.2
545.327	28412.3
546.537	28393.6
547.747	28375.8
548.957	28371.6
550.167	28371.8
551.377	28372.9
552.585	28374.1
553.794	28375.2
555.003	28378.3
556.212	28381.8
557.421	28387.4
558.628	28395.5
559.836	28406.2
561.044	28422.8
562.252	28443.9
563.458	28448.3
564.666	28439.8
565.873	28422.7
567.08	28395.5
568.286	28380.4
569.493	28371.2
570.699	28368
571.904	28370.4
573.111	28381.4
574.317	28398.4
575.521	28404.1
576.727	28412.9
577.932	28420
579.136	28420.6
580.341	28420.5
581.544	28434
582.749	28454.2
583.954	28476.6
585.156	28481.3
586.361	28482.4
587.563	28479.5
588.767	28473.6
589.97	28466.6
591.172	28459.1
592.375	28449.3
593.577	28438.6
594.78	28429.1
595.981	28420.9
597.183	28417.5
598.384	28417.6
599.586	28423.9
600.786	28432.8
601.988	28450
603.188	28461.3
604.389	28418.6
605.589	28401.2
606.79	28393.7
607.989	28385.6
609.188	28363.9
610.389	28344
611.587	28325.6
612.787	28308.5
613.986	28294.1
615.184	28287.2
616.383	28283.1
617.581	28282.3
618.78	28284.3
619.977	28285.1
621.174	28273.8
622.373	28252.9
623.57	28223.8
624.766	28187
625.964	28148.7
627.16	28115.8
628.356	28087.7
629.554	28067.7
630.749	28061.3
631.945	28050
633.14	28022.5
634.337	27994.4
635.532	27974.2
636.726	27960.9
637.921	27955.5
639.117	27958.7
640.311	27969.4
641.505	27977.8
642.699	27990.5
643.892	27988.1
645.087	27986
646.28	27981.7
647.473	27975.7
648.666	27966.7
649.859	27956.3
651.051	27950.5
652.245	27951.7
653.437	27970.6
654.629	27998
655.821	28017
657.012	28034.3
658.204	28048
659.395	28056.8
660.586	28061.3
661.777	28062.2
662.967	28060
664.158	28054.5
665.349	28048.8
666.539	28062.8
667.729	28081.8
668.919	28109.4
670.109	28149.9
671.298	28180.1
672.487	28188.8
673.676	28186.7
674.865	28183.2
676.053	28177.7
677.242	28172.8
678.43	28167.6
679.616	28163.8
680.804	28164
681.992	28171
683.179	28153.5
684.366	28128.6
685.554	28108
686.74	28095.3
687.927	28085.2
689.114	28088.2
690.3	28113
691.486	28131.7
692.671	28134.9
693.856	28098.6
695.042	28049.2
696.227	27968
697.413	27926.4
698.598	27897.2
699.781	27875.2
700.966	27861.9
702.15	27868.7
703.334	27872.7
704.518	27874.9
705.701	27873.4
706.885	27866.5
708.068	27857
709.252	27850.6
710.433	27842.8
711.616	27834.2
712.799	27824.7
713.98	27814.7
715.163	27803.8
716.345	27791
717.527	27778
718.707	27767.3
719.889	27758.7
721.071	27766.3
722.25	27770.2
723.432	27780.5
724.611	27791
725.792	27801
726.972	27801.2
728.151	27784.5
729.332	27775.5
730.512	27775
731.69	27781.2
732.87	27789.1
734.048	27799.9
735.227	27813.4
736.405	27829.8
737.584	27848.7
738.761	27869.3
739.94	27879.8
741.117	27869.8
742.295	27859.5
743.471	27854
744.649	27852.9
745.825	27852.1
747.003	27858.8
748.179	27877.6
749.356	27894.9
750.531	27901.8
751.708	27903.2
752.883	27886.1
754.059	27868.8
755.234	27859.9
756.409	27858.6
757.585	27866
758.759	27882.2
759.934	27900.4
761.108	27919.4
762.282	27927.8
763.456	27928.1
764.63	27918.7
765.803	27889.3
766.977	27846.1
768.15	27793.9
769.323	27723.2
770.496	27783.5
771.668	27838.3
772.841	27830.1
774.014	27770.9
775.185	27690.7
776.357	27618.4
777.528	27605.1
778.701	27586.3
779.872	27576.3
781.042	27572.8
782.213	27573.6
783.383	27583.4
784.555	27585.9
785.725	27576
786.895	27567.1
788.064	27561.8
789.234	27554.4
790.404	27545.5
791.573	27534.6
792.742	27522.1
793.911	27507.4
795.08	27491.7
796.248	27466.2
797.416	27441.6
798.584	27421.2
799.753	27407.9
800.921	27403.2
802.088	27400.3
803.256	27395.3
804.423	27389.9
805.59	27381.3
806.756	27366.5
807.923	27351.5
809.089	27369.4
810.256	27436.7
811.422	27445.3
812.587	27372
813.753	27323.2
814.918	27324.4
816.084	27428.6
817.249	27493.2
818.414	27490.7
819.578	27459.2
820.743	27452.9
821.907	27448.8
823.072	27447.3
824.236	27451.4
825.399	27461.1
826.562	27476.2
827.725	27490.3
828.889	27502.5
830.052	27504.9
831.215	27508.7
832.377	27513.5
833.54	27518.9
834.701	27524.2
835.863	27527.5
837.025	27528.9
838.187	27527.9
839.349	27521.8
840.51	27512.8
841.67	27500.3
842.831	27484.6
843.992	27465.2
845.153	27442.9
846.312	27423.1
847.473	27414.6
848.633	27420.4
849.793	27415.5
850.951	27394.9
852.111	27366.2
853.27	27333.2
854.428	27301
855.588	27269.1
856.747	27239.3
857.904	27219.9
859.063	27209.3
860.221	27210.1
861.378	27213.3
862.536	27217
863.694	27221.2
864.85	27219.1
866.008	27211.5
867.164	27187.4
868.321	27159.4
869.478	27133.2
870.633	27109.8
871.79	27085.7
872.945	27061
874.101	27035.7
875.256	27009.7
876.412	26982.8
877.566	26953.2
878.722	26919.7
879.876	26883.2
881.031	26843.7
882.185	26820.7
883.34	26815.1
884.493	26820.1
885.647	26829.6
886.8	26842.7
887.954	26862.1
889.107	26849.9
890.261	26834.7
891.413	26794.4
892.565	26767.8
893.718	26757
894.87	26756.5
896.023	26753.5
897.174	26748.1
898.326	26745
899.478	26744
900.629	26746.2
901.779	26751.2
902.931	26758
904.081	26767.6
905.231	26779.1
906.383	26791.7
907.532	26804.5
908.682	26818.7
909.831	26833.6
910.982	26850.6
912.131	26867.1
913.28	26874.2
914.429	26870.7
915.578	26870.8
916.727	26876
917.875	26883.2
919.023	26887.4
920.171	26893.5
921.32	26900.1
922.467	26901.8
923.614	26897.5
924.761	26875.9
925.908	26861.8
927.055	26854.8
928.203	26847
929.349	26837.2
930.496	26830.4
931.642	26821.2
932.787	26830.5
933.933	26871.7
935.079	26880.2
936.224	26861.9
937.369	26837.5
938.514	26797.6
939.659	26765.6
940.804	26762.9
941.948	26765.5
943.092	26763.7
944.236	26757.6
945.38	26750.2
946.524	26742.3
947.667	26732.4
948.811	26720.7
949.954	26707.7
951.097	26693
952.24	26676.9
953.383	26658.2
954.525	26634.5
955.667	26606.8
956.81	26573.1
957.952	26541.2
959.093	26504.5
960.235	26493.1
961.376	26489.4
962.516	26490.7
963.658	26494.8
964.798	26497.7
965.939	26498.3
967.08	26497.5
968.22	26491.4
969.359	26481.6
970.499	26463.6
971.639	26443.6
972.779	26421
973.918	26398.5
975.056	26382.9
976.195	26373.7
977.334	26377.3
978.473	26380.6
979.61	26395
980.749	26417.2
981.887	26434
983.024	26444.4
984.162	26433.8
985.3	26426
986.437	26420.3
987.573	26413.2
988.711	26405.4
989.848	26399.3
990.983	26392.3
992.12	26385.1
993.255	26377.5
994.392	26368.1
995.528	26356.9
996.662	26319.3
997.798	26305.6
998.933	26319
1000.07	26358
1001.2	26421
1002.34	26510.3
1003.47	26410.5
1004.61	26407.1
1005.74	26403.9
1006.87	26401.8
1008.01	26395.6
1009.14	26395.6
1010.27	26406.4
1011.41	26407.4
1012.54	26403.7
1013.67	26398
1014.81	26376.3
1015.94	26362.9
1017.07	26347.1
1018.2	26332.2
1019.33	26306.4
1020.47	26303.8
1021.6	26297.9
1022.73	26308.3
1023.86	26312.7
1024.99	26323.9
1026.12	26328.3
1027.25	26308.5
1028.38	26281.3
1029.51	26246.9
1030.64	26209.1
1031.77	26183.9
1032.9	26160.9
1034.03	26140.1
1035.16	26121
1036.29	26103.8
1037.42	26088.2
1038.55	26073.4
1039.67	26060.3
1040.8	26048.4
1041.93	26036.3
1043.06	26015.4
1044.19	25986.2
1045.31	25955.9
1046.44	25937.9
1047.57	25923.9
1048.69	25911.7
1049.82	25903
1050.95	25896
1052.08	25892
1053.2	25884.1
1054.33	25861.4
1055.45	25846.2
1056.58	25830
1057.7	25812.6
1058.83	25793.6
1059.95	25771.8
1061.08	25749.7
1062.2	25724.9
1063.33	25704.5
1064.45	25705.5
1065.58	25709.5
1066.7	25719.9
1067.83	25726.5
1068.95	25715.3
1070.07	25704.2
1071.2	25695.4
1072.32	25685.5
1073.44	25691.4
1074.56	25702
1075.69	25714.1
1076.81	25728.8
1077.93	25745.2
1079.05	25744.2
1080.17	25728.5
1081.3	25713.2
1082.42	25696.3
1083.54	25689.4
1084.66	25679.4
1085.78	25679
1086.9	25698.8
1088.02	25715.6
1089.14	25731.2
1090.26	25742.7
1091.38	25749.2
1092.5	25739.7
1093.62	25729.9
1094.74	25713.7
1095.86	25697
1096.98	25681.3
1098.1	25670.5
1099.22	25665.2
1100.34	25659.9
1101.45	25656.2
1102.57	25652.8
1103.69	25648.7
1104.81	25643.2
1105.93	25634.2
1107.04	25623.4
1108.16	25611.4
1109.28	25600.6
1110.4	25593.2
1111.51	25587.9
1112.63	25582.3
1113.75	25577
1114.86	25569.1
1115.98	25555
1117.09	25536.2
1118.21	25509.8
1119.32	25477.9
1120.44	25443.6
1121.55	25409.9
1122.67	25383.3
1123.78	25356.7
1124.9	25332.2
1126.01	25310.5
1127.13	25290.6
1128.24	25273.3
1129.35	25257.7
1130.47	25242.5
1131.58	25227.2
1132.7	25199.2
1133.81	25173.4
1134.92	25141.5
1136.03	25107.7
1137.15	25071.8
1138.26	25039.1
1139.37	25022.3
1140.48	25012.4
1141.59	24987.5
1142.71	24958.5
1143.82	24931
1144.93	24905.8
1146.04	24884
1147.15	24864.8
1148.26	24848.3
1149.37	24834.3
1150.48	24823
1151.59	24814.1
1152.7	24808.1
1153.81	24804.4
1154.92	24803.5
1156.03	24804.7
1157.14	24807.3
1158.25	24809.5
1159.36	24798.9
1160.47	24783.7
1161.58	24751.2
1162.68	24719.2
1163.79	24711.2
1164.9	24712
1166.01	24715.7
1167.12	24718.5
1168.22	24720.6
1169.33	24722.2
1170.44	24722.2
1171.55	24721.6
1172.65	24717.9
1173.76	24712.2
1174.87	24704.1
1175.97	24697.8
1177.08	24727.6
1178.18	24773.2
1179.29	24809
1180.4	24764.3
1181.5	24756.1
1182.61	24754.2
1183.71	24746.7
1184.82	24727.9
1185.92	24697.3
1187.02	24661
1188.13	24613.4
1189.23	24571.6
1190.34	24706.9
1191.44	24707.3
1192.54	24725.2
1193.65	24741.3
1194.75	24753.4
1195.85	24759.6
1196.96	24760
1198.06	24756.2
1199.16	24748.3
1200.26	24736.3
1201.37	24722.3
1202.47	24704.1
1203.57	24716
1204.67	24740.1
1205.77	24767.4
1206.87	24778.4
1207.97	24778.6
1209.08	24771.4
1210.18	24770.3
1211.28	24766.5
1212.38	24756.1
1213.48	24740.3
1214.58	24717.6
1215.68	24686.3
1216.78	24656.2
1217.88	24628.8
1218.98	24616.4
1220.07	24609.6
1221.17	24610.2
1222.27	24617.3
1223.37	24634.9
1224.47	24617.4
1225.57	24583
1226.66	24549.3
1227.76	24519.6
1228.86	24496.1
1229.96	24478
1231.06	24464.7
1232.15	24457
1233.25	24455.5
1234.35	24460.6
1235.44	24471.1
1236.54	24488.6
1237.63	24450.8
1238.73	24366.4
1239.83	24372.8
1240.92	24372.9
1242.02	24368.8
1243.11	24359.5
1244.21	24344.2
1245.3	24323.2
1246.4	24292.4
1247.49	24292
1248.59	24333.3
1249.68	24254.6
1250.78	24213.6
1251.87	24198.2
1252.96	24201.5
1254.06	24198.9
1255.15	24185.3
1256.24	24174.2
1257.34	24163.3
1258.43	24152.3
1259.52	24141.1
1260.62	24130.4
1261.71	24121
1262.8	24114.9
1263.89	24112.4
1264.98	24114.1
1266.08	24118.6
1267.17	24125
1268.26	24131.3
1269.35	24133.3
1270.44	24126.8
1271.53	24121.5
1272.62	24115.6
1273.71	24106.9
1274.8	24096.6
1275.89	24087.8
1276.98	24082.5
1278.07	24086.2
1279.16	24091.5
1280.25	24123.2
1281.34	24151.2
1282.43	24166
1283.52	24169.9
1284.61	24172.5
1285.69	24171.9
1286.78	24169.1
1287.87	24163.8
1288.96	24156.2
1290.05	24146.8
1291.13	24135.9
1292.22	24126.2
1293.31	24120.2
1294.4	24133.6
1295.48	24148.7
1296.57	24157.8
1297.66	24163.7
1298.74	24163.2
1299.83	24159.5
1300.92	24151.1
1302	24139
1303.09	24124.6
1304.17	24108.6
1305.26	24092
1306.34	24077.6
1307.43	24080.9
1308.51	24112.6
1309.6	24124.1
1310.68	24135.2
1311.76	24148.6
1312.85	24139.9
1313.93	24116.9
1315.02	24092
1316.1	24072.3
1317.18	24061.7
1318.27	24052.2
1319.35	24047.5
1320.43	24042.5
1321.52	24040.1
1322.6	24037.8
1323.68	24035.5
1324.76	24030
1325.85	24021
1326.93	24006.8
1328.01	23982.2
1329.09	23954.8
1330.17	23929
1331.25	23900.5
1332.33	23879.9
1333.41	23872.1
1334.49	23876.8
1335.58	23881.7
1336.65	23877.8
1337.74	23867.7
1338.82	23851.3
1339.89	23835.3
1340.97	23817.1
1342.05	23801.7
1343.13	23792.6
1344.21	23784.1
1345.29	23778.5
1346.37	23775.1
1347.45	23770.8
1348.53	23764.2
1349.6	23740.1
1350.68	23700.7
1351.76	23711.8
1352.84	23715.6
1353.92	23720.5
1354.99	23721.2
1356.07	23731.6
1357.15	23714.5
1358.22	23717.6
1359.3	23722.3
1360.38	23726.4
1361.45	23728.9
1362.53	23729.3
1363.61	23727.8
1364.68	23725
1365.76	23721.4
1366.83	23716.6
1367.91	23712.7
1368.98	23709.4
1370.06	23711.2
1371.13	23720
1372.21	23731.1
1373.28	23742.1
1374.35	23748.4
1375.43	23748.1
1376.5	23743.5
1377.58	23733.4
1378.65	23721.8
1379.72	23710.4
1380.8	23695.8
1381.87	23677.4
1382.94	23655.1
1384.01	23629.5
1385.09	23601.5
1386.16	23572.5
1387.23	23551.5
1388.3	23539.4
1389.38	23537.1
1390.45	23539.7
1391.52	23542.2
1392.59	23540.5
1393.66	23520.5
1393.92	23511.7
1395	23517.2
1396.07	23519.4
1397.15	23519
1398.22	23516.7
1399.3	23513
1400.38	23508.1
1401.45	23501.8
1402.53	23494.6
1403.6	23487.1
1404.68	23480.3
1405.75	23475
1406.82	23472.5
1407.9	23473.3
1408.97	23477.8
1410.05	23485.2
1411.12	23499
1412.19	23508.1
1413.27	23476.8
1414.34	23429.9
1415.41	23372.7
1416.49	23353
1417.56	23344.9
1418.63	23344.7
1419.7	23353
1420.78	23345.6
1421.85	23335
1422.92	23315
1423.99	23296.8
1425.06	23287.3
1426.14	23288.9
1427.21	23290.6
1428.28	23293.4
1429.35	23294.4
1430.42	23278.2
1431.49	23229.4
1432.56	23206.6
1433.63	23223.4
1434.7	23219.8
1435.77	23216.6
1436.84	23208.5
1437.91	23203.3
1438.98	23197.9
1440.05	23191
1441.12	23184.6
1442.18	23178.1
1443.25	23171.6
1444.32	23165.5
1445.39	23161.4
1446.46	23159.2
1447.53	23156.9
1448.59	23154.4
1449.66	23148.1
1450.73	23140.5
1451.8	23130.7
1452.86	23119.2
1453.93	23105.9
1455	23091.3
1456.06	23079.2
1457.13	23068
1458.2	23058.6
1459.26	23053.9
1460.33	23056.2
1461.39	23059.8
1462.46	23065.1
1463.52	23071.3
1464.59	23077.9
1465.65	23083.9
1466.72	23082
1467.78	23085.5
1468.85	23077
1469.91	23048.9
1470.98	23006.7
1472.04	22965.1
1473.1	22991
1474.17	23047.3
1475.23	23128.8
1476.3	23085.7
1477.36	23064.1
1478.42	23022.7
1479.48	23001
1480.55	22980
1481.61	22958.7
1482.67	22941.1
1483.73	22927
1484.8	22917.8
1485.86	22912.8
1486.92	22913.8
1487.98	22919.7
1489.04	22885.5
1490.1	22876.8
1491.17	22870.5
1492.23	22861.9
1493.29	22864.4
1494.35	22871.7
1495.41	22868.3
1496.47	22864.2
1497.53	22860.4
1498.59	22856.7
1499.65	22855.5
1500.71	22854.8
1501.77	22853.3
1502.83	22849.5
1503.88	22843.9
1504.94	22834.9
1506	22823
1507.06	22808.2
1508.12	22791.9
1509.18	22775
1510.23	22760.5
1511.29	22754.3
1512.35	22736.5
1513.41	22715.6
1514.47	22693.6
1515.52	22669.6
1516.58	22648.8
1517.64	22628.1
1518.69	22607.3
1519.75	22587.3
1520.81	22567.7
1521.86	22549.1
1522.92	22532.3
1523.97	22518.1
1525.03	22526.6
1526.08	22531.6
1527.14	22535.7
1528.2	22536.4
1529.25	22532
1530.31	22524.6
1531.36	22513.3
1532.42	22497.7
1533.47	22478.4
1534.52	22454.6
1535.58	22426.3
1536.63	22394.4
1537.69	22361.2
1538.74	22336.4
1539.79	22291.1
1540.84	22286.8
1541.9	22318.4
1542.95	22355.2
1544	22391.9
1545.06	22425
1546.11	22453.9
1547.16	22404.5
1548.21	22392.5
1549.27	22378
1550.32	22359.8
1551.37	22335.4
1552.42	22324.5
1553.47	22322
1554.52	22341.7
1555.57	22359.3
1556.62	22373.8
1557.67	22381.9
1558.72	22384.3
1559.77	22365.6
1560.82	22347.1
1561.87	22338.2
1562.92	22332.9
1563.97	22334.1
1565.02	22337.2
1566.07	22338.2
1567.12	22339.1
1568.17	22339.1
1569.22	22338.7
1570.27	22337.2
1571.32	22334.6
1572.36	22330.1
1573.41	22323.6
1574.46	22316.2
1575.51	22301.2
1576.56	22280.8
1577.6	22250.8
1578.65	22232.6
1579.7	22219.6
1580.74	22219.6
1581.79	22221.2
1582.84	22233
1583.88	22249.1
1584.93	22267.9
1585.98	22278
1587.02	22268.4
1588.07	22247.4
1589.11	22228
1590.16	22201.2
1591.2	22173.9
1592.25	22152.2
1593.29	22132.2
1594.34	22114.5
1595.38	22099.3
1596.43	22086.8
1597.47	22077.7
1598.52	22071.4
1599.56	22067.7
1600.6	22066.6
1601.65	22028.5
1602.69	22000.6
1603.73	21976
1604.78	21952.4
1605.82	21927.9
1606.86	21906.6
1607.91	21890.1
1608.95	21882.4
1609.99	21878.2
1611.03	21876.7
1612.08	21875.9
1613.12	21870
1614.16	21843.3
1615.2	21795.5
1616.24	21771.8
1617.28	21759.4
1618.32	21751.8
1619.36	21754.5
1620.41	21736.6
1621.45	21721.7
1622.49	21701.8
1623.53	21666.5
1624.57	21634.3
1625.61	21596.8
1626.65	21605.6
1627.69	21613.5
1628.73	21628.9
1629.76	21525.4
1630.8	21492
1631.84	21508.5
1632.88	21566.1
1633.92	21561.3
1634.96	21555.1
1636	21550.2
1637.03	21541.8
1638.07	21526.3
1639.11	21502.7
1640.15	21471.3
1641.19	21433.2
1642.22	21383.6
1643.26	21361.3
1644.3	21342.2
1645.33	21336.9
1646.37	21333.1
1647.41	21331
1648.44	21329.8
1649.48	21330.8
1650.52	21331.1
1651.55	21331
1652.59	21330.1
1653.62	21329.3
1654.66	21327
1655.69	21321.2
1656.73	21310.2
1657.76	21292.9
1658.8	21277
1659.83	21259
1660.87	21237.9
1661.9	21213.5
1662.93	21191.7
1663.97	21174.4
1665	21161.4
1666.04	21158.3
1667.07	21153.7
1668.1	21153.4
1669.14	21156
1670.17	21158.4
1671.2	21159.1
1672.23	21158.1
1673.27	21153.9
1674.3	21149.2
1675.33	21142.5
1676.36	21134
1677.39	21123.3
1678.43	21110.3
1679.46	21095.1
1680.49	21077.9
1681.52	21058.6
1682.55	21037.7
1683.58	21019.3
1684.61	21014.7
1685.64	21011.6
1686.67	21013.9
1687.7	21015.2
1688.73	21021.9
1689.76	21021.6
1690.79	21020.2
1691.82	21014.6
1692.85	21043.4
1693.88	21062.4
1694.91	21005.4
1695.94	20964.1
1696.97	20925.2
1698	20892.9
1699.02	20869
1700.05	20852
1701.08	20842.1
1702.11	20838.9
1703.14	20841.9
1704.16	20851
1705.19	20847.6
1706.22	20849.8
1707.25	20830
1708.27	20803.6
1709.3	20769.2
1710.33	20730.6
1711.35	20713.3
1712.38	20705
1713.41	20703
1714.43	20702.1
1715.46	20701.7
1716.48	20689.1
1717.51	20674.9
1718.53	20658.8
1719.56	20640.8
1720.58	20620.2
1721.61	20597.8
1722.63	20573
1723.66	20548
1724.68	20525
1725.71	20512.4
1726.73	20519.1
1727.75	20516.8
1728.78	20509.2
1729.8	20493.9
1730.83	20472.6
1731.85	20447
1732.87	20420.4
1733.89	20397.6
1734.92	20377.2
1735.94	20357.4
1736.96	20340.2
1737.98	20324.3
1739.01	20311
1740.03	20300.7
1741.05	20294.7
1742.07	20301.9
1743.09	20294.5
1744.12	20283.3
1745.14	20263
1746.16	20243.1
1747.18	20226.8
1748.2	20209.8
1749.22	20194.5
1750.24	20181.4
1751.26	20170.5
1752.28	20163.2
1753.3	20165.1
1754.32	20165.3
1755.34	20167.2
1756.36	20171.9
1757.38	20173.9
1758.4	20147.7
1759.42	20131.1
1760.44	20113.6
1761.45	20090.3
1762.47	20067.7
1763.49	20046.8
1764.51	20028
1765.53	20011
1766.55	20006.4
1767.56	19995.8
1768.58	19983.3
1769.6	19971.8
1770.61	19960.6
1771.63	19948.2
1772.65	19935.8
1773.67	19920.9
1774.68	19911.1
1775.7	19905.7
1776.72	19904.8
1777.73	19908.6
1778.75	19901.7
1779.76	19890.8
1780.78	19875.9
1781.79	19859.6
1782.81	19842.5
1783.83	19825.9
1784.84	19811.6
1785.85	19796.8
1786.87	19783.3
1787.88	19769.4
1788.9	19756.8
1789.91	19746.5
1790.93	19741.5
1791.94	19742.8
1792.95	19737.2
1793.97	19730.6
1794.98	19723
1796	19712.6
1797.01	19700.4
1798.02	19684.9
1799.03	19666.8
1800.05	19645.7
1801.06	19620.9
1802.07	19593.7
1803.08	19563.7
1804.1	19538.5
1805.11	19516.6
1806.12	19506.7
1807.13	19497
1808.14	19489.4
1809.15	19476.9
1810.17	19419
1811.18	19295.3
1812.19	19468.2
1813.2	19475
1814.21	19430.8
1815.22	19423.2
1816.23	19404.8
1817.24	19387.3
1818.25	19366.3
1819.26	19342.2
1820.27	19315.9
1821.28	19287.1
1822.29	19256.3
1823.3	19223.3
1824.3	19190.4
1825.31	19204.4
1826.32	19200.5
1827.33	19200
1828.34	19203.9
1829.35	19202.9
1830.35	19192.9
1831.36	19171.2
1832.37	19134.7
1833.38	19092.7
1834.38	19057.3
1835.39	19025.3
1836.4	19014.7
1837.41	19021.2
1838.41	19030.5
1839.42	19044.5
1840.43	19043.1
1841.43	19036.4
1842.44	19024.1
1843.44	19009.6
1844.45	18982.5
1845.46	18953.5
1846.46	18924.8
1847.47	18898.1
1848.47	18884.1
1849.48	18871
1850.48	18860
1851.49	18852.1
1852.49	18859.3
1853.49	18828.4
1854.5	18801.4
1855.5	18777.7
1856.51	18759.2
1857.51	18746.7
1858.51	18768.9
1859.52	18768.4
1860.52	18725.6
1861.52	18687.4
1862.53	18699.7
1863.53	18691
1864.53	18679.6
1865.54	18665.1
1866.54	18648.7
1867.54	18633.2
1868.54	18621.5
1869.54	18615.3
1870.55	18600.2
1871.55	18581.7
1872.55	18559
1873.55	18545
1874.55	18536.6
1875.55	18527
1876.55	18520.5
1877.55	18521.5
1878.55	18513.6
1879.55	18496.4
1880.56	18479.2
1881.55	18461.1
1882.56	18450
1883.55	18438.2
1884.55	18425.2
1885.55	18411.8
1886.55	18397.8
1887.55	18383.9
1888.55	18365.5
1889.55	18348
1890.55	18330.3
1891.55	18312.8
1892.55	18298.7
1893.54	18287.7
1894.54	18286.4
1895.54	18284
1896.54	18287.3
1897.54	18285.2
1898.53	18252.2
1899.53	18219.1
1900.53	18197.1
1901.52	18223.9
1902.52	18257.1
1903.52	18248.3
1904.51	18222
1905.51	18191.8
1906.51	18165.1
1907.5	18138.5
1908.5	18108.9
1909.49	18084.8
1910.49	18070.5
1911.49	18055.4
1912.48	18039
1913.48	18022
1914.47	18004.2
1915.46	17978.2
1916.46	17944.6
1917.45	17918.5
1918.45	17901.3
1919.44	17891.7
1920.44	17891.6
1921.43	17889.3
1922.43	17882.8
1923.42	17876.1
1924.41	17864.5
1925.41	17849.8
1926.4	17833.2
1927.39	17813.4
1928.38	17791.5
1929.38	17768.1
1930.37	17744.8
1931.36	17725
1932.35	17705.7
1933.35	17686.7
1934.34	17668.8
1935.33	17652.2
1936.32	17636.9
1937.31	17623.8
1938.3	17612.6
1939.29	17603.6
1940.29	17595.9
1941.28	17590.2
1942.27	17585.3
1943.26	17575.6
1944.25	17538.5
1945.24	17513.4
1946.23	17489
1947.22	17465.5
1948.21	17449.9
1949.2	17437.7
1950.19	17428.5
1951.18	17421.5
1952.17	17415.4
1953.16	17408.9
1954.14	17388.5
1955.13	17373.1
1956.12	17357.3
1957.11	17342.5
1958.1	17331.9
1959.09	17321.2
1960.07	17310.5
1961.06	17299.8
1962.05	17290.7
1963.04	17263.6
1964.02	17237.7
1965.01	17215.5
1966	17196.8
1966.99	17182.6
1967.97	17171.7
1968.96	17164.3
1969.95	17159.8
1970.93	17147.3
1971.92	17133
1972.9	17115.7
1973.89	17096.8
1974.88	17077.3
1975.86	17058.3
1976.85	17050.4
1977.83	17041.4
1978.82	17031.6
1979.8	17020.4
1980.79	17007.2
1981.77	16991.7
1982.76	16958.7
1983.74	16937.3
1984.72	16920.4
1985.71	16926
1986.69	16929.5
1987.67	16933.1
1988.66	16926.9
1989.64	16918.7
1990.62	16906.2
1991.61	16889.4
1992.59	16868.5
1993.57	16842.6
1994.56	16814.8
1995.54	16792.6
1996.52	16775.6
1997.5	16760.6
1998.49	16750.1
1999.47	16744.4
2000.45	16741.7
2001.43	16741.6
2002.41	16740.7
2003.39	16727.9
2004.38	16709.3
2005.36	16691.7
2006.34	16673
2007.32	16659.5
2008.3	16643.8
2009.28	16670.9
2010.26	16671.6
2011.24	16646.5
2012.22	16608.6
2013.2	16583.6
2014.18	16557.2
2015.16	16530.4
2016.14	16506.3
2017.12	16483.4
2018.1	16463.1
2019.07	16445.6
2020.05	16431.2
2021.03	16425.1
2022.01	16421.2
2022.99	16414.6
2023.97	16404.7
2024.95	16387.6
2025.92	16371.1
2026.9	16352.6
2027.88	16332.7
2028.86	16312.2
2029.83	16291.7
2030.81	16271.8
2031.79	16252.9
2032.76	16236.3
2033.74	16214.1
2034.72	16188.3
2035.69	16166
2036.67	16158.8
2037.65	16163.5
2038.62	16175.9
2039.6	16199.7
2040.57	16146.7
2041.55	16134.9
2042.52	16119.2
2043.5	16100.1
2044.47	16078.8
2045.45	16054.4
2046.42	16031.7
2047.4	16009
2048.37	15987.2
2049.35	15965.5
2050.32	15945.5
2051.29	15932.1
2052.27	15920.8
2053.24	15934.9
2054.21	15929.7
2055.19	15899.7
2056.16	15878.7
2057.13	15854.5
2058.11	15827.3
2059.08	15805.7
2060.05	15796.5
2061.02	15790
2062	15783.8
2062.97	15778.8
2063.94	15774.4
2064.91	15764.8
2065.89	15750.3
2066.86	15731.9
2067.83	15714.4
2068.8	15695.5
2069.77	15674.9
2070.74	15651.8
2071.71	15628.2
2072.68	15605
2073.65	15584
2074.62	15564.6
2075.59	15547
2076.56	15532.5
2077.53	15524.8
2078.5	15520.2
2079.47	15511.9
2080.44	15496.5
2081.41	15469.9
2082.38	15448.8
2083.35	15427.9
2084.32	15409.1
2085.29	15387.4
2086.26	15364.9
2087.23	15347.3
2088.19	15334
2089.16	15337.8
2090.13	15325.1
2091.1	15311.6
2092.07	15297.8
2093.03	15283.6
2094	15268.8
2094.97	15253.2
2095.94	15240.4
2096.9	15230.7
2097.87	15224.3
2098.84	15214.7
2099.8	15201.4
2100.77	15192.5
2101.74	15175.8
2102.7	15140.2
2103.67	15105.3
2104.63	15088.7
2105.6	15088.1
2106.56	15075
2107.53	15068.8
2108.49	15052.1
2109.46	15037.4
2110.42	15019.1
2111.39	15002.1
2112.35	14989.7
2113.32	14988.2
2114.28	14986.5
2115.25	14980.1
2116.21	14967.5
2117.17	14954
2118.14	14938.7
2119.1	14921.4
2120.07	14902.2
2121.03	14880.5
2121.99	14856.6
2122.96	14830.9
2123.92	14805
2124.88	14781.7
2125.84	14767.5
2126.81	14761.2
2127.77	14760.1
2128.73	14749.6
2129.69	14736.7
2130.65	14721.7
2131.62	14706.7
2132.58	14691.7
2133.54	14676.7
2134.5	14661.8
2135.46	14646.7
2136.42	14631.4
2137.38	14616.3
2138.34	14602.2
2139.3	14590.8
2140.26	14583.6
2141.22	14586.2
2142.18	14580.6
2143.14	14574.6
2144.1	14572.2
2145.06	14556.2
2146.02	14519.6
2146.98	14488.6
2147.94	14462.5
2148.9	14443
2149.86	14427.1
2150.82	14413.8
2151.78	14403
2152.74	14395.6
2153.69	14389.3
2154.65	14378.6
2155.61	14360.1
2156.57	14319.5
2157.53	14309.9
2158.48	14306.3
2159.44	14315.5
2160.4	14306.9
2161.36	14288.9
2162.31	14269.1
2163.27	14247.8
2164.23	14227.5
2165.18	14218.2
2166.14	14203.1
2167.1	14185.5
2168.05	14165.5
2169.01	14135.1
2169.96	14102.7
2170.92	14068.2
2171.88	14031.3
2172.83	13994.2
2173.79	13957.5
2174.74	13929.7
2175.7	13901.8
2176.65	13875.3
2177.6	13850.5
2178.56	13826.9
2179.51	13804.4
2180.47	13783.6
2181.42	13764.4
2182.38	13747.2
2183.33	13731.8
2184.28	13720.5
2185.24	13711.4
2186.19	13704.8
2187.14	13700.9
2188.1	13697.6
2189.05	13693.9
2190	13686.4
2190.96	13678.1
2191.91	13666.4
2192.86	13644.1
2193.81	13623.8
2194.76	13605.5
2195.72	13585.5
2196.67	13567.7
2197.62	13555.7
2198.57	13541.7
2199.52	13538.6
2200.47	13536.7
2201.43	13535.2
2202.38	13532.1
2203.33	13517.8
2204.28	13503
2205.23	13482.7
2206.18	13458.5
2207.13	13432.1
2208.08	13401.2
2209.03	13384.5
2209.98	13367.1
2210.93	13360.9
2211.88	13348.3
2212.83	13335.4
2213.78	13325.8
2214.73	13320.7
2215.67	13324.5
2216.62	13346.2
2217.57	13336.1
2218.52	13319.5
2219.47	13262.5
2220.42	13228.1
2221.37	13208.8
2222.31	13197
2223.26	13200.8
2224.21	13214.2
2225.16	13216.5
2226.1	13222.8
2227.05	13222.8
2228	13214.2
2228.94	13200.9
2229.89	13185.6
2230.84	13171.9
2231.78	13157.1
2232.73	13146.7
2233.68	13135.5
2234.62	13126.2
2235.57	13117.1
2236.51	13109
2237.46	13101.7
2238.41	13089.8
2239.35	13077.1
2240.3	13058.6
2241.24	13042.6
2242.19	13032.6
2243.13	13025.5
2244.07	13020.5
2245.02	13020.7
2245.96	13023.3
2246.91	13028
2247.85	13030.8
2248.8	13020.8
2249.74	13016
2250.68	13009.8
2251.63	13007.4
2252.57	13005
2253.51	13001.5
2254.46	12986.3
2255.4	12968.7
2256.34	12953.8
2257.28	12940.3
2258.23	12930.7
2259.17	12924.1
2260.11	12923.3
2261.05	12923.1
2262	12921.8
2262.94	12916
2263.88	12891.9
2264.82	12871.6
2265.76	12855
2266.7	12840.2
2267.64	12856.7
2268.58	12867.2
2269.53	12861.4
2270.47	12858.5
2271.41	12856.5
2272.35	12853.7
2273.29	12849.2
2274.23	12844.2
2275.17	12840.5
2276.11	12838.9
2277.05	12837.8
2277.99	12834.4
2278.93	12829.2
2279.86	12822.3
2280.8	12814.7
2281.74	12805
2282.68	12794.3
2283.62	12784.5
2284.56	12775.9
2285.5	12777.2
2286.44	12781.4
2287.37	12785
2288.31	12785.7
2289.25	12786.1
2290.19	12781.2
2291.12	12772.4
2292.06	12761.8
2293	12750.1
2293.94	12738.2
2294.87	12727.8
2295.81	12721.6
2296.75	12719.8
2297.68	12729.9
2298.62	12733.6
2299.55	12726.5
2300.49	12714.5
2301.43	12700.6
2302.36	12688.5
2303.3	12674.7
2304.23	12659.5
2305.17	12637
2306.1	12608.4
2307.04	12578.8
2307.98	12555.3
2308.91	12562.3
2309.84	12591
2310.78	12597.7
2311.71	12585.3
2312.65	12568.3
2313.58	12546.7
2314.52	12519
2315.45	12485.9
2316.38	12474.9
2317.32	12473.7
2317.72	12470.7
2318.66	12467.4
2319.6	12467.5
2320.54	12470
2321.48	12478.8
2322.41	12467.6
2323.35	12441.4
2324.29	12405.6
2325.23	12375.7
2326.16	12350.8
2327.1	12331.2
2328.04	12320.4
2328.97	12312.9
2329.91	12308.5
2330.85	12301.3
2331.78	12293.7
2332.72	12289.4
2333.66	12287.7
2334.59	12289.9
2335.53	12290.1
2336.46	12287.5
2337.4	12280.8
2338.33	12271.7
2339.27	12259.9
2340.2	12245.2
2341.14	12227.4
2342.07	12203.7
2343.01	12188.2
2343.94	12190.2
2344.88	12192.5
2345.81	12194.2
2346.75	12194.1
2347.68	12189.4
2348.61	12166.2
2349.55	12148.5
2350.48	12133.4
2351.41	12121
2352.35	12111.9
2353.28	12111.6
2354.21	12114.5
2355.15	12111.4
2356.08	12103.7
2357.01	12085.7
2357.94	12064.3
2358.88	12045.4
2359.81	12024.9
2360.74	11999.3
2361.67	11974.3
2362.6	11963.9
2363.54	11963.1
2364.47	11964.5
2365.4	11965.2
2366.33	11967.9
2367.26	11969.8
2368.19	11969.1
2369.12	11966.3
2370.05	11963.3
2370.98	11957.6
2371.91	11951.3
2372.84	11941.9
2373.77	11927.5
2374.7	11904.2
2375.63	11869.7
2376.56	11839
2377.49	11851.7
2378.42	11848.2
2379.35	11850.5
2380.28	11850
2381.21	11856.1
2382.14	11860.2
2383.07	11854.4
2384	11836
2384.92	11807.9
2385.85	11790.5
2386.78	11779.9
2387.71	11774.8
2388.64	11774.5
2389.56	11778.2
2390.49	11786.3
2391.42	11796.2
2392.35	11789.7
2393.27	11774.5
2394.2	11752.2
2395.13	11734.4
2396.05	11721.3
2396.98	11712.4
2397.91	11707.1
2398.83	11705.8
2399.76	11709.5
2400.69	11715.8
2401.61	11719.8
2402.54	11713.5
2403.46	11701.3
2404.39	11684.5
2405.31	11663.3
2406.24	11640.6
2407.17	11623.8
2408.09	11618.9
2409.01	11614.4
2409.94	11606.7
2410.86	11597.3
2411.79	11583.2
2412.71	11571.6
2413.64	11550.5
2414.56	11533.6
2415.49	11520.9
2416.41	11509
2417.33	11499
2418.26	11490
2419.18	11482.9
2420.1	11477.7
2421.03	11475.3
2421.95	11476.3
2422.87	11478.8
2423.79	11482.9
2424.72	11482.3
2425.64	11472.1
2426.56	11462
2427.48	11448
2428.41	11429.7
2429.33	11409.4
2430.25	11389.1
2431.17	11369.5
2432.09	11350.9
2433.01	11332.8
2433.93	11315.8
2434.86	11299.7
2435.78	11285.2
2436.7	11277.4
2437.62	11290.4
2438.54	11304.4
2439.46	11311.6
2440.38	11298.7
2441.3	11192.8
2442.22	11175.4
2443.14	11199.6
2444.06	11202.8
2444.98	11195.4
2445.9	11178.8
2446.82	11162.4
2447.73	11148.8
2448.65	11126
2449.57	11107
2450.49	11092.7
2451.41	11093.7
2452.33	11088.7
2453.25	11091.5
2454.17	11069.3
2455.08	11029
2456	11010.6
2456.92	10999.6
2457.84	10996.5
2458.75	11001.1
2459.67	11068.2
2460.59	11008
2461.51	10979.4
2462.42	10959.6
2463.34	10943.8
2464.26	10930.4
2465.17	10923.4
2466.09	10921.5
2467	10920.7
2467.92	10929.5
2468.84	10921.3
2469.75	10909.6
2470.67	10898.6
2471.58	10887
2472.5	10875
2473.42	10862.1
2474.33	10854.4
2475.25	10846.1
2476.16	10838
2477.08	10829.7
2477.99	10821.5
2478.9	10812.7
2479.82	10795.5
2480.73	10786.9
2481.65	10781.2
2482.56	10789.2
2483.47	10793.2
2484.39	10790.4
2485.3	10785.2
2486.22	10779.5
2487.13	10774.9
2488.04	10768.4
2488.96	10761.8
2489.87	10754.4
2490.78	10746.7
2491.69	10739.2
2492.61	10732
2493.52	10727.8
2494.43	10719.6
2495.34	10707.1
2496.25	10697
2497.17	10679.1
2498.08	10663.4
2498.99	10649
2499.9	10655.1
2500.81	10660.8
2501.72	10663.7
2502.63	10663.1
2503.55	10660.8
2504.46	10656.4
2505.37	10642.3
2506.28	10626.2
2507.19	10609
2508.1	10592.6
2509.01	10575.3
2509.92	10561
2510.83	10549.4
2511.74	10542.8
2512.65	10537.3
2513.56	10534
2514.47	10529.7
2515.37	10528
2516.28	10525.4
2517.19	10519.5
2518.1	10509.1
2519.01	10500
2519.92	10508.6
2520.83	10515.8
2521.73	10533.5
2522.64	10511.4
2523.55	10450.8
2524.46	10459.5
2525.37	10465.9
2526.27	10460.9
2527.18	10474.5
2528.09	10497
2529	10463.9
2529.9	10414.1
2530.81	10396.6
2531.72	10404.5
2532.62	10405.2
2533.53	10400.2
2534.44	10390.2
2535.34	10376.8
2536.25	10364.3
2537.15	10350.4
2538.06	10334.8
2538.96	10317.8
2539.87	10301.2
2540.78	10285.7
2541.68	10270
2542.59	10252.9
2543.49	10237.3
2544.4	10228.1
2545.3	10232.6
2546.21	10231.3
2547.11	10228.9
2548.01	10226.6
2548.92	10223.1
2549.82	10218
2550.73	10211.1
2551.63	10202.7
2552.53	10192.8
2553.44	10181.4
2554.34	10168.9
2555.24	10154.3
2556.15	10135
2557.05	10118.9
2557.95	10108.8
2558.86	10102.8
2559.76	10094.1
2560.66	10084.8
2561.56	10074
2562.46	10061.2
2563.37	10049.5
2564.27	10037.5
2565.17	10027.1
2566.07	10017.2
2566.97	10012.7
2567.88	10007.2
2568.78	10002.7
2569.68	9998.08
2570.58	9990.33
2571.48	9979.87
2572.38	9956.24
2573.28	9940.98
2574.18	9931.69
2575.08	9929.44
2575.98	9926.28
2576.88	9921.41
2577.78	9921.26
2578.68	9914.89
2579.58	9904.78
2580.48	9889.51
2581.38	9868.3
2582.28	9841.52
2583.18	9817.33
2584.08	9796
2584.98	9779.49
2585.88	9767.84
2586.77	9765.71
2587.67	9760.94
2588.57	9753.57
2589.47	9742.18
2590.37	9732.9
2591.27	9722.71
2592.16	9714.69
2593.06	9708.45
2593.96	9702.32
2594.86	9696.88
2595.75	9691.81
2596.65	9686.6
2597.55	9680.94
2598.45	9672.25
2599.34	9662.8
2600.24	9650.85
2601.13	9634.56
2602.03	9617.11
2602.93	9600.7
2603.82	9586.17
2604.72	9582.25
2605.62	9577.29
2606.51	9576.79
2607.41	9578.58
2608.3	9583.05
2609.2	9584.44
2610.09	9569.91
2610.99	9557.33
2611.88	9533.77
2612.78	9516.08
2613.67	9498.53
2614.57	9475.08
2615.46	9465.4
2616.36	9505.13
2617.25	9501.13
2618.14	9495.61
2619.04	9490.37
2619.93	9482.57
2620.83	9468.9
2621.72	9450.74
2622.61	9434.95
2623.5	9421.05
2624.4	9412.42
2625.29	9407.38
2626.18	9405.13
2627.08	9404.85
2627.97	9407.93
2628.86	9413.98
2629.75	9418.55
2630.65	9418.7
2631.54	9382.35
2632.43	9343.63
2633.32	9308.77
2634.21	9287.89
2635.11	9283.8
2636	9271.28
2636.89	9261.34
2637.78	9252.08
2638.67	9242.42
2639.56	9231.71
2640.45	9219.57
2641.34	9206.8
2642.23	9194.65
2643.12	9182.57
2644.01	9172.77
2644.9	9164.24
2645.79	9155.44
2646.68	9145.75
2647.57	9137.4
2648.46	9129.03
2649.35	9115.72
2650.24	9097.68
2651.13	9074.85
2652.02	9050.83
2652.91	9035.77
2653.8	9025.98
2654.69	9013.05
2655.58	9009.9
2656.46	9019.97
2657.35	9003.41
2658.24	8982.11
2659.13	8953.06
2660.02	8920.75
2660.9	8943.51
2661.79	8979.67
2662.68	8985.46
2663.57	8965.64
2664.45	8957.84
2665.34	8920.5
2666.23	8886.11
2667.11	8895.69
2668	8907.41
2668.89	8902.46
2669.77	8900.24
2670.66	8897.92
2671.55	8894.66
2672.43	8890.55
2673.32	8884.68
2674.21	8878.1
2675.09	8870.89
2675.98	8862.74
2676.86	8853.66
2677.75	8843.18
2678.63	8836.72
2679.52	8831.38
2680.4	8832.36
2681.29	8826.24
2682.17	8817.12
2683.06	8802.09
2683.94	8785.64
2684.82	8765.75
2685.71	8744.44
2686.59	8722.32
2687.48	8700.7
2688.36	8680.19
2689.24	8662.72
2690.13	8655.25
2691.01	8650.68
2691.89	8651.82
2692.78	8645.84
2693.66	8638.56
2694.54	8631.24
2695.43	8616.39
2696.31	8600.93
2697.19	8570.48
2698.07	8563.39
2698.96	8560.57
2699.84	8560.13
2700.72	8559.01
2701.6	8552.83
2702.48	8544.31
2703.36	8532.53
2704.25	8517.42
2705.13	8498.16
2706.01	8480.71
2706.89	8472.12
2707.77	8468.9
2708.65	8465.32
2709.53	8461.21
2710.41	8455.95
2711.29	8449.95
2712.17	8442.89
2713.05	8434.98
2713.93	8425.65
2714.81	8415.01
2715.69	8403.54
2716.57	8392.13
2717.45	8408.8
2718.33	8450.67
2719.21	8405.99
2720.09	8384.9
2720.97	8351.53
2721.85	8337.75
2722.73	8331.29
2723.61	8327.52
2724.48	8328.05
2725.36	8331.88
2726.24	8337.15
2727.12	8341.25
2728	8320.03
2728.88	8302.5
2729.75	8284.13
2730.63	8268.05
2731.51	8254.31
2732.39	8243.19
2733.26	8235.42
2734.14	8232.22
2735.02	8232.39
2735.89	8235.97
2736.77	8242.68
2737.65	8251.28
2738.52	8257.1
2739.4	8254.37
2740.28	8247.6
2741.15	8234.32
2742.03	8202.44
2742.9	8178.03
2743.78	8155.67
2744.65	8141.05
2745.53	8137.36
2746.41	8141.41
2747.28	8143.82
2748.16	8136.98
2749.03	8133.55
2749.91	8131.03
2750.78	8125.6
2751.66	8125.53
2752.53	8125.78
2753.4	8127.26
2754.28	8128.98
2755.15	8130.34
2756.02	8129.43
2756.9	8103.8
2757.77	8081.86
2758.65	8064.86
2759.52	8049.98
2760.39	8044.9
2761.27	8042.1
2762.14	8034.19
2763.01	8030.43
2763.88	8024.2
2764.76	8015.73
2765.63	8004.09
2766.5	7987.63
2767.37	7968.48
2768.25	7961.49
2769.12	7962
2769.99	7965.71
2770.86	7970.36
2771.73	7976.6
2772.61	7974.39
2773.48	7965.39
2774.35	7942.13
2775.22	7928.6
2776.09	7913.24
2776.96	7903.51
2777.83	7901.57
2778.7	7899.02
2779.57	7894.7
2780.44	7886.75
2781.31	7872.79
2782.18	7854.75
2783.05	7837.78
2783.92	7821.5
2784.79	7809.31
2785.66	7802.78
2786.53	7803.76
2787.4	7808.47
2788.27	7808.98
2789.14	7806.31
2790.01	7800.1
2790.88	7791.47
2791.75	7780.01
2792.62	7766
2793.48	7751.18
2794.35	7738.03
2795.22	7728.14
2796.09	7718.72
2796.96	7710.23
2797.82	7702.15
2798.69	7694.86
2799.56	7686.64
2800.43	7677.72
2801.29	7668.29
2802.16	7659.31
2803.03	7650.99
2803.9	7646.62
2804.76	7642.31
2805.63	7639.22
2806.5	7637.42
2807.36	7637
2808.23	7638.16
2809.09	7640.84
2809.96	7644.28
2810.83	7641.71
2811.69	7627.74
2812.56	7612.06
2813.42	7592.05
2814.29	7571.12
2815.15	7563.63
2816.02	7564.61
2816.88	7570.62
2817.75	7574.6
2818.61	7566.58
2819.48	7558.63
2820.34	7548.6
2821.21	7534.94
2822.07	7519.08
2822.94	7501.77
2823.8	7488.98
2824.66	7484.27
2825.53	7482.28
2826.39	7492.42
2827.26	7502.6
2828.12	7504.63
2828.98	7500.42
2829.85	7493.78
2830.71	7488.44
2831.57	7481.61
2832.43	7473.27
2833.3	7463.49
2834.16	7451.02
2835.02	7436.81
2835.88	7421.45
2836.75	7408.08
2837.61	7402.41
2838.47	7398.8
2839.33	7396.54
2840.19	7395.22
2841.06	7389.77
2841.92	7380.48
2842.78	7370.29
2843.64	7364.69
2844.5	7359.85
2845.36	7366.15
2846.22	7369.37
2847.08	7370.13
2847.94	7367.62
2848.81	7362.18
2849.67	7353.08
2850.53	7340.19
2851.39	7326
2852.25	7312.03
2853.11	7299.19
2853.97	7288.39
2854.82	7278.32
2855.68	7268.88
2856.54	7261.11
2857.4	7254.27
2858.26	7247.83
2859.12	7240.64
2859.98	7230.26
2860.84	7224.51
2861.7	7224.87
2862.56	7226.13
2863.41	7229.81
2864.27	7239.72
2865.13	7241.04
2865.99	7229.03
2866.85	7208.96
2867.7	7186.77
2868.56	7171.61
2869.42	7156.98
2870.28	7148.01
2871.13	7145.29
2871.99	7139.28
2872.85	7126.9
2873.7	7117.82
2874.56	7108.53
2875.42	7112.46
2876.27	7121.71
2877.13	7122.33
2877.99	7105.03
2878.84	7098.81
2879.7	7090.89
2880.56	7080.7
2881.41	7072.81
2882.27	7063.85
2883.12	7055.87
2883.98	7049.81
2884.83	7045.3
2885.69	7060.26
2886.54	7063.63
2887.4	7066.04
2888.25	7067.27
2889.11	7002.62
2889.96	6982.63
2890.82	6989.54
2891.67	6987.41
2892.52	6984.66
2893.38	6981.12
2894.23	6979.86
2895.09	6965.7
2895.94	6963.77
2896.79	6966.27
2897.65	6965.2
2898.5	6960.78
2899.35	6952.8
2900.21	6944.44
2901.06	6931.26
2901.91	6916.22
2902.76	6898.32
2903.62	6878.68
2904.47	6860.84
2905.32	6845.82
2906.17	6840.57
2907.03	6841.32
2907.88	6843.3
2908.73	6844.58
2909.58	6844.71
2910.43	6839.12
2911.28	6832.03
2912.14	6822.29
2912.99	6810.37
2913.84	6795.76
2914.69	6779.71
2915.54	6767.52
2916.39	6759.65
2917.24	6761.39
2918.09	6764.91
2918.94	6770.52
2919.79	6770.91
2920.64	6770.23
2921.49	6765.66
2922.34	6747.54
2923.19	6730.48
2924.04	6715.11
2924.89	6701.53
2925.74	6690.06
2926.59	6680.7
2927.44	6673.73
2928.29	6669.19
2929.14	6666.36
2929.98	6651.97
2930.83	6640.14
2931.68	6631.94
2932.53	6627.25
2933.38	6631.5
2934.23	6633.94
2935.07	6628.88
2935.92	6619.83
2936.77	6606.1
2937.62	6588.36
2938.47	6565.43
2939.31	6544.81
2940.16	6543.02
2941.01	6554.43
2941.85	6568.51
2942.7	6570.7
2943.55	6563.76
2944.39	6548.53
2945.24	6529.06
2946.09	6513.11
2946.93	6506.09
2947.78	6509.8
2948.63	6510.9
2949.47	6510.14
2950.32	6507.12
2951.16	6498.54
2952.01	6485.15
2952.85	6466.55
2953.7	6448.66
2954.55	6433.29
2955.39	6427.21
2956.24	6428.13
2957.08	6436.46
2957.92	6449.92
2958.77	6464.72
2959.61	6477.68
2960.46	6486.92
2961.3	6487.23
2962.15	6479.71
2962.99	6459.42
2963.83	6434.36
2964.68	6409.44
2965.52	6388.27
2966.37	6373.37
2967.21	6360.49
2968.05	6351.31
2968.9	6345.73
2969.74	6343.6
2970.58	6344.98
2971.42	6348.86
2972.27	6349.37
2973.11	6333.59
2973.95	6318.98
2974.79	6309.39
2975.64	6324.2
2976.48	6325.94
2977.32	6324.44
2978.16	6320.14
2979	6310.33
2979.85	6298.33
2980.69	6287.96
2981.53	6280.22
2982.37	6275.91
2983.21	6274.36
2984.05	6274.32
2984.89	6275.43
2985.73	6277.7
2986.57	6277.89
2987.41	6275.62
2988.25	6267.8
2989.1	6256.24
2989.94	6241.77
2990.77	6225.04
2991.62	6214.61
2992.45	6206.62
2993.29	6212.22
2994.13	6208.55
2994.97	6202.71
2995.81	6191.4
2996.65	6181.06
2997.49	6177.37
2998.33	6179.97
2999.17	6158.38
