200.833	22850.5
202.102	22769.1
203.371	22866.9
204.639	22879.6
205.907	22895.9
207.175	22908.3
208.442	22918.5
209.71	22929.9
210.977	22953.5
212.244	22994.1
213.511	23023.2
214.777	23045.3
216.042	23064.6
217.309	23076.5
218.575	23091.1
219.84	23105.5
221.106	23130.3
222.371	23160.9
223.635	23211.5
224.9	23269.5
226.165	23314.5
227.429	23350
228.694	23389.7
229.956	23429.9
231.22	23475.7
232.484	23516.8
233.747	23569.6
235.011	23628.4
236.272	23703.4
237.535	23746.1
238.798	23776.5
240.06	23743.8
241.321	23800.7
242.583	23841.3
243.845	23879.1
245.105	23915.1
246.367	23947.7
247.628	23976.5
248.888	24001.1
250.149	24020.4
251.409	24034.3
252.67	24043.3
253.928	24047.3
255.189	24046.1
256.447	24039.9
257.707	24056.9
258.966	24075.7
260.224	24096.4
261.483	24120.5
262.742	24144.4
263.999	24167.5
265.257	24187.2
266.514	24204.9
267.772	24221.1
269.028	24235.6
270.286	24248.1
271.543	24259.3
272.799	24285.5
274.056	24315.2
275.311	24346.1
276.568	24396.3
277.823	24436.1
279.079	24464.9
280.333	24484.3
281.589	24469.2
282.843	24450.2
284.099	24484.2
285.352	24532.4
286.607	24591.9
287.86	24635.3
289.114	24674.7
290.368	24695.1
291.621	24707.2
292.875	24723.2
294.127	24741
295.38	24760.2
296.632	24778.9
297.884	24791.1
299.137	24804.5
300.388	24822
301.641	24862.4
302.891	24923.8
304.142	24924.4
305.394	24933.6
306.644	24944.7
307.894	24958.4
309.146	24970.6
310.395	24987.1
311.645	25005.1
312.895	25022.1
314.144	25035.8
315.393	25046.5
316.642	25049.4
317.892	25047.2
319.14	25041.3
320.388	25031.5
321.637	25022.3
322.885	25061.6
324.132	25137.8
325.38	25209.7
326.628	25308.5
327.875	25252.7
329.122	25245.1
330.368	25254.6
331.614	25263.8
332.862	25326.6
334.108	25347.2
335.353	25350.2
336.599	25356.3
337.844	25365.9
339.089	25379.1
340.335	25396.2
341.58	25416.9
342.824	25441.6
344.068	25470
345.312	25499.5
346.556	25527.5
347.8	25541.1
349.043	25554.9
350.286	25566.1
351.53	25574.5
352.774	25580.5
354.016	25584
355.259	25585.6
356.501	25584.9
357.743	25582
358.985	25576.7
360.227	25569.6
361.468	25575
362.709	25605.1
363.95	25620.8
365.191	25623.4
366.432	25609.8
367.672	25612
368.912	25618
370.152	25635.1
371.392	25650.2
372.632	25665.3
373.871	25681.6
375.11	25697.7
376.348	25712.1
377.587	25724.2
378.825	25734.7
380.064	25743.3
381.302	25754.6
382.54	25766.7
383.778	25780.1
385.016	25795
386.253	25811.6
387.489	25829.9
388.726	25849.5
389.963	25874.3
391.199	25901.4
392.436	25926.7
393.672	25949
394.907	25963.6
396.142	25963.4
397.378	25960
398.614	25944.4
399.849	25936.4
401.082	25951.5
402.317	25979.2
403.552	26019.2
404.786	26062
406.019	26100.8
407.253	26125
408.487	26136.3
409.721	26134.2
410.953	26132.3
412.186	26129.7
413.419	26130.7
414.651	26126.7
415.883	26127.1
417.116	26131.4
418.347	26144.9
419.579	26174.9
420.811	26191.7
422.041	26203
423.272	26218.4
424.504	26224.6
425.733	26215.2
426.964	26198.7
428.194	26188.5
429.424	26182.6
430.654	26194.8
431.883	26235.9
433.113	26260.6
434.341	26280.1
435.571	26293
436.799	26278.2
438.028	26262.2
439.257	26259
440.484	26281.8
441.713	26306.3
442.94	26324.4
444.168	26339.3
445.394	26351.4
446.622	26360.9
447.848	26366.4
449.076	26368.4
450.301	26364.8
451.528	26358.1
452.754	26381.8
453.979	26404
455.205	26416.2
456.43	26421
457.656	26416.8
458.88	26442.8
460.106	26466.4
461.33	26495.2
462.554	26509.4
463.779	26473.9
465.002	26452.3
466.225	26436.6
467.45	26420.1
468.672	26420.7
469.895	26434.6
471.119	26444.2
472.341	26452.4
473.563	26458.2
474.786	26460.8
476.008	26457.4
477.229	26450.6
478.452	26440.9
479.673	26429.5
480.894	26418.3
482.115	26410.4
483.337	26406
484.557	26404.5
485.777	26404.6
486.997	26413.3
488.218	26425.4
489.438	26434.7
490.657	26436.3
491.876	26381.1
493.096	26350
494.315	26345
495.533	26344.4
496.752	26336.6
497.97	26332.1
499.188	26333.1
500.407	26338.8
501.625	26348
502.842	26360.1
504.059	26372.4
505.276	26382.3
506.493	26392.6
507.71	26401.5
508.926	26408.3
510.142	26412.7
511.358	26416.1
512.575	26418.7
513.791	26423.1
515.006	26436.4
516.222	26452.5
517.437	26471.2
518.651	26492.3
519.866	26512.7
521.081	26531
522.295	26547
523.509	26560.8
524.723	26573
525.937	26583
527.15	26591.1
528.363	26596.7
529.576	26600.4
530.789	26599.9
532.002	26596.8
533.215	26591.3
534.426	26586.4
535.638	26577
536.85	26572.8
538.061	26575.3
539.273	26589.9
540.484	26610.4
541.695	26620.2
542.906	26631.5
544.117	26642.6
545.327	26650.2
546.537	26658
547.747	26661.9
548.957	26666.8
550.167	26675.9
551.377	26693.6
552.585	26720.4
553.794	26730.2
555.003	26703.2
556.212	26646.5
557.421	26632
558.628	26673.2
559.836	26670.7
561.044	26667.1
562.252	26648.3
563.458	26633
564.666	26618.5
565.873	26606.3
567.08	26593.9
568.286	26577.8
569.493	26590
570.699	26608
571.904	26622.3
573.111	26637.9
574.317	26645.5
575.521	26653.9
576.727	26661.4
577.932	26667.3
579.136	26674.1
580.341	26679.4
581.544	26687.9
582.749	26698.6
583.954	26704.1
585.156	26700.4
586.361	26680.2
587.563	26665.1
588.767	26650.3
589.97	26640
591.172	26635.6
592.375	26642.6
593.577	26639
594.78	26633
595.981	26613.5
597.183	26609.4
598.384	26623
599.586	26655.3
600.786	26690.1
601.988	26718.3
603.188	26689.3
604.389	26673.5
605.589	26654.2
606.79	26628.4
607.989	26600.3
609.188	26570.8
610.389	26540.1
611.587	26527
612.787	26506.7
613.986	26500.2
615.184	26504.6
616.383	26521
617.581	26541.7
618.78	26524.1
619.977	26507.1
621.174	26479.6
622.373	26449.7
623.57	26417.6
624.766	26391.5
625.964	26374
627.16	26361.8
628.356	26353.2
629.554	26348.9
630.749	26356
631.945	26356.9
633.14	26339.1
634.337	26312.6
635.532	26271.8
636.726	26267.9
637.921	26265.5
639.117	26270.4
640.311	26275.1
641.505	26273.4
642.699	26252.9
643.892	26244.3
645.087	26241.8
646.28	26240.6
647.473	26242.8
648.666	26249.1
649.859	26257.3
651.051	26268.6
652.245	26283.3
653.437	26297.7
654.629	26302.4
655.821	26304
657.012	26300.9
658.204	26294.2
659.395	26282.4
660.586	26284.8
661.777	26285.8
662.967	26300.1
664.158	26333.1
665.349	26346.8
666.539	26355.9
667.729	26369
668.919	26378.8
670.109	26347.5
671.298	26321.5
672.487	26296.8
673.676	26284.1
674.865	26300.8
676.053	26323.5
677.242	26337.8
678.43	26347.7
679.616	26354.3
680.804	26358.2
681.992	26358.7
683.179	26355.2
684.366	26348.8
685.554	26339.2
686.74	26326.7
687.927	26311.8
689.114	26298.7
690.3	26284.7
691.486	26272.2
692.671	26267.5
693.856	26263.4
695.042	26258.7
696.227	26253.4
697.413	26248.1
698.598	26241.1
699.781	26241.6
700.966	26213.5
702.15	26189.9
703.334	26158
704.518	26149.4
705.701	26149.4
706.885	26167.4
708.068	26132.2
709.252	26107.7
710.433	26089.3
711.616	26083.8
712.799	26070.5
713.98	26075.4
715.163	26078.8
716.345	26078.6
717.527	26060.1
718.707	26043.6
719.889	26024.6
721.071	26005
722.25	25984.9
723.432	25996.1
724.611	26009.2
725.792	26054.1
726.972	26066.5
728.151	26067
729.332	26053.8
730.512	26050.2
731.69	26040
732.87	26030.2
734.048	26018.1
735.227	26015.7
736.405	26033.3
737.584	26070.6
738.761	26111
739.94	26146.2
741.117	26139.5
742.295	26153.1
743.471	26163.5
744.649	26171.3
745.825	26175.4
747.003	26172.7
748.179	26168.6
749.356	26162.4
750.531	26154.2
751.708	26144.1
752.883	26131.6
754.059	26120.7
755.234	26133.8
756.409	26152.7
757.585	26161
758.759	26161.1
759.934	26155
761.108	26145.7
762.282	26136.2
763.456	26123.5
764.63	26107.8
765.803	26089.7
766.977	26070.3
768.15	26050.2
769.323	26030
770.496	26009.5
771.668	25992.9
772.841	25981.9
774.014	25970
775.185	25959.2
776.357	25948.9
777.528	25934.2
778.701	25921.5
779.872	25897.3
781.042	25843.7
782.213	25852.2
783.383	25878.7
784.555	25888
785.725	25894.6
786.895	25880.3
788.064	25853.1
789.234	25812.3
790.404	25787
791.573	25760.3
792.742	25741
793.911	25726.4
795.08	25716.5
796.248	25711.3
797.416	25711.4
798.584	25716.9
799.753	25729.6
800.921	25736.6
802.088	25721.9
803.256	25705.7
804.423	25690.1
805.59	25682.4
806.756	25677.9
807.923	25674.5
809.089	25668.8
810.256	25660.7
811.422	25652.4
812.587	25659.9
813.753	25667.9
814.918	25684.1
816.084	25696.5
817.249	25706.4
818.414	25713.4
819.578	25719.1
820.743	25726.9
821.907	25737.6
823.072	25750.4
824.236	25761.7
825.399	25771.1
826.562	25774.4
827.725	25772.5
828.889	25767.6
830.052	25768.4
831.215	25771.8
832.377	25797.1
833.54	25816.4
834.701	25822.4
835.863	25840.4
837.025	25836.5
838.187	25817
839.349	25783.7
840.51	25729.1
841.67	25749.1
842.831	25744.9
843.992	25740.7
845.153	25732.7
846.312	25724.7
847.473	25729.6
848.633	25733.5
849.793	25737.1
850.951	25734.3
852.111	25718.8
853.27	25701.7
854.428	25678.8
855.588	25656.2
856.747	25638.5
857.904	25620.1
859.063	25601.5
860.221	25583
861.378	25565.6
862.536	25543.1
863.694	25518.2
864.85	25479.8
866.008	25438.5
867.164	25407.5
868.321	25387.6
869.478	25375.4
870.633	25373.4
871.79	25374.2
872.945	25371.9
874.101	25358.2
875.256	25328.1
876.412	25285.9
877.566	25233.9
878.722	25192.4
879.876	25162
881.031	25146.3
882.185	25130.6
883.34	25146.8
884.493	25138.5
885.647	25135.1
886.8	25096
887.954	25108.1
889.107	25116.7
890.261	25175.6
891.413	25234.3
892.565	25191.4
893.718	25171.7
894.87	25150.3
896.023	25132.1
897.174	25110.6
898.326	25084.8
899.478	25077.9
900.629	25077.4
901.779	25081.4
902.931	25084.6
904.081	25084.1
905.231	25086.6
906.383	25090.2
907.532	25095.1
908.682	25100.8
909.831	25107.6
910.982	25116.4
912.131	25126.2
913.28	25137.4
914.429	25146.8
915.578	25142.5
916.727	25148.9
917.875	25156.9
919.023	25184.6
920.171	25186.7
921.32	25172.4
922.467	25163.6
923.614	25147.7
924.761	25109
925.908	25099.1
927.055	25090.9
928.203	25113.7
929.349	25121.4
930.496	25125.8
931.642	25114
932.787	25107.4
933.933	25103.9
935.079	25098.5
936.224	25092.4
937.369	25086.4
938.514	25079.7
939.659	25073.2
940.804	25066.1
941.948	25058
943.092	25049
944.236	25037.8
945.38	25025.3
946.524	25007.5
947.667	24985.1
948.811	24964.2
949.954	24946.1
951.097	24941.5
952.24	24936
953.383	24925.2
954.525	24913.8
955.667	24898
956.81	24867.4
957.952	24831.3
959.093	24806.1
960.235	24825.6
961.376	24845.4
962.516	24859.5
963.658	24864.2
964.798	24855.7
965.939	24842.7
967.08	24824.9
968.22	24807.5
969.359	24782.3
970.499	24761.1
971.639	24764.8
972.779	24771.3
973.918	24777.9
975.056	24783.7
976.195	24783.9
977.334	24777.5
978.473	24763.2
979.61	24734.7
980.749	24701.8
981.887	24685.7
983.024	24673.4
984.162	24673.8
985.3	24691.7
986.437	24704.1
987.573	24715.1
988.711	24725.5
989.848	24734.9
990.983	24745.1
992.12	24748.9
993.255	24754.3
994.392	24758.9
995.528	24773.1
996.662	24799.8
997.798	24781.3
998.933	24768
1000.07	24768.2
1001.2	24776
1002.34	24775.7
1003.47	24771.9
1004.61	24797
1005.74	24784
1006.87	24753.7
1008.01	24732.9
1009.14	24696.5
1010.27	24677.9
1011.41	24677.7
1012.54	24698.6
1013.67	24714.2
1014.81	24726.8
1015.94	24735.1
1017.07	24739.5
1018.2	24739.7
1019.33	24739.7
1020.47	24728.7
1021.6	24708
1022.73	24678.9
1023.86	24650.2
1024.99	24631.4
1026.12	24617.3
1027.25	24607
1028.38	24589.6
1029.51	24565.7
1030.64	24543.9
1031.77	24509
1032.9	24473.6
1034.03	24438.5
1035.16	24404.4
1036.29	24380.9
1037.42	24357.4
1038.55	24338.2
1039.67	24323.6
1040.8	24315.1
1041.93	24341.2
1043.06	24363.8
1044.19	24362.8
1045.31	24322.6
1046.44	24308.2
1047.57	24216.4
1048.69	24286
1049.82	24274.8
1050.95	24232.8
1052.08	24197.4
1053.2	24165.8
1054.33	24137
1055.45	24118.8
1056.58	24104.5
1057.7	24096.4
1058.83	24092.7
1059.95	24091.9
1061.08	24093.4
1062.2	24078.6
1063.33	24067.3
1064.45	24050.9
1065.58	24033.9
1066.7	24018.9
1067.83	24005.7
1068.95	24009.4
1070.07	24013.5
1071.2	24034.1
1072.32	24065.4
1073.44	24079.5
1074.56	24090.8
1075.69	24089
1076.81	24091.4
1077.93	24068.7
1079.05	24050.2
1080.17	24033.7
1081.3	24063.5
1082.42	24091
1083.54	24119.3
1084.66	24129.9
1085.78	24125.5
1086.9	24102
1088.02	24079.4
1089.14	24057.9
1090.26	24037.1
1091.38	24006.9
1092.5	23996.5
1093.62	24006.4
1094.74	24037.2
1095.86	24067
1096.98	24097.6
1098.1	24126.2
1099.22	24136
1100.34	24152.8
1101.45	24134.4
1102.57	24074.8
1103.69	24028.1
1104.81	24018
1105.93	24028.6
1107.04	24025
1108.16	23992.2
1109.28	23958.1
1110.4	23926.9
1111.51	23899.4
1112.63	23891.8
1113.75	23908.5
1114.86	23961
1115.98	23901
1117.09	23880.4
1118.21	23859.2
1119.32	23837.8
1120.44	23815
1121.55	23793.2
1122.67	23776.4
1123.78	23762
1124.9	23745.5
1126.01	23722.9
1127.13	23696.8
1128.24	23668.8
1129.35	23638.3
1130.47	23605.3
1131.58	23569.5
1132.7	23531.3
1133.81	23493.9
1134.92	23474.1
1136.03	23470.2
1137.15	23460.5
1138.26	23453.8
1139.37	23446.2
1140.48	23436.9
1141.59	23423.7
1142.71	23403.6
1143.82	23380.7
1144.93	23346.3
1146.04	23319.6
1147.15	23297.7
1148.26	23284.8
1149.37	23280.3
1150.48	23262.2
1151.59	23231.3
1152.7	23214.7
1153.81	23211.8
1154.92	23221.3
1156.03	23218.1
1157.14	23212.2
1158.25	23211.4
1159.36	23188.2
1160.47	23182.2
1161.58	23189.9
1162.68	23194.2
1163.79	23190.3
1164.9	23179.2
1166.01	23167.2
1167.12	23160.8
1168.22	23158.3
1169.33	23157.4
1170.44	23159.7
1171.55	23167.4
1172.65	23185.8
1173.76	23199.2
1174.87	23209.6
1175.97	23215.6
1177.08	23215.2
1178.18	23210.6
1179.29	23202.2
1180.4	23189.5
1181.5	23173.1
1182.61	23153
1183.71	23140.9
1184.82	23153.4
1185.92	23172.7
1187.02	23189.9
1188.13	23202.8
1189.23	23208.8
1190.34	23207.7
1191.44	23204.3
1192.54	23196.3
1193.65	23184.2
1194.75	23171
1195.85	23157.2
1196.96	23145.7
1198.06	23133.5
1199.16	23122
1200.26	23116.6
1201.37	23120.8
1202.47	23134.5
1203.57	23152.7
1204.67	23168.5
1205.77	23177.7
1206.87	23185.1
1207.97	23185.7
1209.08	23147.3
1210.18	23084.8
1211.28	23060.1
1212.38	23062.6
1213.48	23078.5
1214.58	23097.6
1215.68	23091.3
1216.78	23085.7
1217.88	23076.5
1218.98	23064.7
1220.07	23050.4
1221.17	23034.7
1222.27	23020.7
1223.37	23019.3
1224.47	23015.9
1225.57	23014
1226.66	23016.6
1227.76	23017.9
1228.86	22981.7
1229.96	22936.8
1231.06	22889.4
1232.15	22858.8
1233.25	22844
1234.35	22849.2
1235.44	22865.9
1236.54	22870.3
1237.63	22869.5
1238.73	22860.7
1239.83	22822.5
1240.92	22798.4
1242.02	22770.4
1243.11	22756.8
1244.21	22745
1245.3	22734.4
1246.4	22725
1247.49	22716.4
1248.59	22709
1249.68	22703
1250.78	22697.4
1251.87	22691.6
1252.96	22684.6
1254.06	22676.6
1255.15	22667.2
1256.24	22656.5
1257.34	22644.5
1258.43	22630.5
1259.52	22619.3
1260.62	22613.3
1261.71	22620.2
1262.8	22635.2
1263.89	22642.3
1264.98	22640.7
1266.08	22643.3
1267.17	22634.9
1268.26	22620.1
1269.35	22610.4
1270.44	22609.5
1271.53	22616.3
1272.62	22632
1273.71	22652.3
1274.8	22664.8
1275.89	22671
1276.98	22668.9
1278.07	22651.7
1279.16	22631.5
1280.25	22601.3
1281.34	22582.2
1282.43	22574.4
1283.52	22575.1
1284.61	22579.9
1285.69	22589.9
1286.78	22604.4
1287.87	22618.6
1288.96	22628.9
1290.05	22622.9
1291.13	22608.9
1292.22	22601.1
1293.31	22622.7
1294.4	22661.2
1295.48	22678.7
1296.57	22660.1
1297.66	22641.1
1298.74	22618.9
1299.83	22598.9
1300.92	22585.6
1302	22589.4
1303.09	22619
1304.17	22631.5
1305.26	22643.9
1306.34	22654.4
1307.43	22654.1
1308.51	22648.8
1309.6	22639.4
1310.68	22628.8
1311.76	22616.8
1312.85	22604.6
1313.93	22593
1315.02	22577.2
1316.1	22560.6
1317.18	22540.7
1318.27	22518.6
1319.35	22500.1
1320.43	22480.8
1321.52	22474.6
1322.6	22473.4
1323.68	22477.2
1324.76	22478.4
1325.85	22468.7
1326.93	22448.2
1328.01	22415.3
1329.09	22411.6
1330.17	22404.5
1331.25	22395.8
1332.33	22389.6
1333.41	22377.9
1334.49	22358.1
1335.58	22331.4
1336.65	22312
1337.74	22304.2
1338.82	22300
1339.89	22300.2
1340.97	22313.1
1342.05	22315.7
1343.13	22311.7
1344.21	22293.9
1345.29	22278.7
1346.37	22265.2
1347.45	22253.6
1348.53	22243.3
1349.6	22235.3
1350.68	22236.1
1351.76	22233.9
1352.84	22231.9
1353.92	22225.5
1354.99	22214
1356.07	22201.1
1357.15	22192.1
1358.22	22193
1359.3	22196.8
1360.38	22207.3
1361.45	22220.8
1362.53	22232.3
1363.61	22242.3
1364.68	22248.8
1365.76	22252.4
1366.83	22252.1
1367.91	22247.1
1368.98	22237.6
1370.06	22221.4
1371.13	22201.2
1372.21	22173.1
1373.28	22141
1374.35	22119.9
1375.43	22118.2
1376.5	22133.5
1377.58	22153.8
1378.65	22167.1
1379.72	22178.3
1380.8	22187.6
1381.87	22193.7
1382.94	22193
1384.01	22181.4
1385.09	22152.9
1386.16	22120.2
1387.23	22091.3
1388.3	22067.8
1389.38	22044.7
1390.45	22038.7
1391.52	22043.4
1392.59	22049
1393.66	22048.8
1393.92	22047.4
1395	22048.2
1396.07	22048
1397.15	22046.4
1398.22	22042.9
1399.3	22038.5
1400.38	22030.5
1401.45	22006.5
1402.53	21985.5
1403.6	21988.2
1404.68	22000.9
1405.75	22009.7
1406.82	22009.5
1407.9	22009
1408.97	22004.9
1410.05	21996.9
1411.12	21985.1
1412.19	21968.6
1413.27	21947.3
1414.34	21908
1415.41	21877.1
1416.49	21866
1417.56	21865.1
1418.63	21868.9
1419.7	21875.8
1420.78	21877.9
1421.85	21839.5
1422.92	21829.9
1423.99	21822.9
1425.06	21819.7
1426.14	21819.8
1427.21	21820.4
1428.28	21811.7
1429.35	21797.3
1430.42	21777.2
1431.49	21745.6
1432.56	21720.5
1433.63	21700.3
1434.7	21685.5
1435.77	21685.9
1436.84	21692.5
1437.91	21701
1438.98	21703.7
1440.05	21705.5
1441.12	21702.5
1442.18	21689.1
1443.25	21671.3
1444.32	21653.6
1445.39	21637.4
1446.46	21623.5
1447.53	21612
1448.59	21603
1449.66	21596.4
1450.73	21594.3
1451.8	21593.7
1452.86	21592.1
1453.93	21588.3
1455	21577.2
1456.06	21567.5
1457.13	21557.6
1458.2	21545.6
1459.26	21539.3
1460.33	21549.5
1461.39	21581.1
1462.46	21616.2
1463.52	21639.3
1464.59	21647.4
1465.65	21641
1466.72	21630.5
1467.78	21614.6
1468.85	21593.3
1469.91	21578.5
1470.98	21573.8
1472.04	21571.4
1473.1	21572.2
1474.17	21575.1
1475.23	21581.3
1476.3	21571.7
1477.36	21551.1
1478.42	21537.4
1479.48	21523.1
1480.55	21507.8
1481.61	21489.8
1482.67	21485.2
1483.73	21463.9
1484.8	21445.3
1485.86	21429.2
1486.92	21415.9
1487.98	21404.8
1489.04	21396.3
1490.1	21392.4
1491.17	21387.4
1492.23	21382.2
1493.29	21380.7
1494.35	21379.6
1495.41	21380.1
1496.47	21380.4
1497.53	21379.4
1498.59	21375.5
1499.65	21365.5
1500.71	21378.9
1501.77	21402.9
1502.83	21402.8
1503.88	21406.8
1504.94	21387.4
1506	21347
1507.06	21297.7
1508.12	21253.3
1509.18	21225.7
1510.23	21218.6
1511.29	21228.3
1512.35	21225
1513.41	21219.1
1514.47	21211.7
1515.52	21200.5
1516.58	21176.2
1517.64	21143
1518.69	21125.7
1519.75	21134.8
1520.81	21147.4
1521.86	21163.4
1522.92	21182.4
1523.97	21196.9
1525.03	21146.7
1526.08	21128
1527.14	21107.2
1528.2	21078.7
1529.25	21051.9
1530.31	21027.6
1531.36	21004.9
1532.42	20982.8
1533.47	20963
1534.52	20946.6
1535.58	20934.8
1536.63	20928.5
1537.69	20927.1
1538.74	20930.1
1539.79	20937.4
1540.84	20949.4
1541.9	20965.6
1542.95	20984.7
1544	20988.1
1545.06	20972.8
1546.11	20952.7
1547.16	20937.1
1548.21	20925.1
1549.27	20915.4
1550.32	20907
1551.37	20899.7
1552.42	20893
1553.47	20888.6
1554.52	20884.9
1555.57	20886.6
1556.62	20887.7
1557.67	20888.2
1558.72	20887
1559.77	20884.8
1560.82	20877.1
1561.87	20871.2
1562.92	20868.3
1563.97	20869.3
1565.02	20881.9
1566.07	20896.7
1567.12	20907.3
1568.17	20914
1569.22	20909.9
1570.27	20897.6
1571.32	20879.7
1572.36	20867.9
1573.41	20857
1574.46	20848.1
1575.51	20843.8
1576.56	20842.2
1577.6	20843.4
1578.65	20847
1579.7	20853.7
1580.74	20860.4
1581.79	20861.8
1582.84	20860.6
1583.88	20853.9
1584.93	20843.4
1585.98	20829
1587.02	20809.9
1588.07	20786.9
1589.11	20759.5
1590.16	20730.9
1591.2	20711.1
1592.25	20706
1593.29	20698.2
1594.34	20686.3
1595.38	20677.1
1596.43	20668
1597.47	20657.1
1598.52	20644.4
1599.56	20629
1600.6	20610.1
1601.65	20588.9
1602.69	20565.1
1603.73	20539.8
1604.78	20511.3
1605.82	20505.2
1606.86	20500.8
1607.91	20506.6
1608.95	20495.9
1609.99	20482.2
1611.03	20447.6
1612.08	20433.8
1613.12	20422.3
1614.16	20412.8
1615.2	20404.2
1616.24	20411.5
1617.28	20420.2
1618.32	20428.5
1619.36	20409.5
1620.41	20377.5
1621.45	20324.3
1622.49	20271.2
1623.53	20227.8
1624.57	20216.5
1625.61	20237.6
1626.65	20241.9
1627.69	20245.6
1628.73	20253.2
1629.76	20227.7
1630.8	20210.2
1631.84	20188.1
1632.88	20165.7
1633.92	20143.3
1634.96	20122.7
1636	20102.9
1637.03	20082.3
1638.07	20066
1639.11	20055.4
1640.15	20054.2
1641.19	20057.5
1642.22	20050.5
1643.26	20041.6
1644.3	20030.6
1645.33	20017.2
1646.37	20004.9
1647.41	19989.5
1648.44	19978.7
1649.48	19981.6
1650.52	19979.9
1651.55	19973
1652.59	19962.7
1653.62	19949.3
1654.66	19927.9
1655.69	19905.3
1656.73	19879
1657.76	19850.6
1658.8	19839.3
1659.83	19832.7
1660.87	19830.2
1661.9	19833.9
1662.93	19842.6
1663.97	19855.9
1665	19868.7
1666.04	19859.7
1667.07	19844.7
1668.1	19825.8
1669.14	19800.3
1670.17	19773.5
1671.2	19765.6
1672.23	19780.6
1673.27	19784.3
1674.3	19786.7
1675.33	19781.8
1676.36	19764.6
1677.39	19758
1678.43	19751.9
1679.46	19744.8
1680.49	19734.2
1681.52	19722.4
1682.55	19709.9
1683.58	19697.2
1684.61	19685.2
1685.64	19673.4
1686.67	19662.8
1687.7	19654.4
1688.73	19648.4
1689.76	19645.5
1690.79	19644.6
1691.82	19645.1
1692.85	19648.2
1693.88	19641.3
1694.91	19632.2
1695.94	19608.4
1696.97	19574.1
1698	19569.9
1699.02	19578.7
1700.05	19594.4
1701.08	19591.9
1702.11	19542.9
1703.14	19522.6
1704.16	19508.5
1705.19	19494.4
1706.22	19481.7
1707.25	19466.8
1708.27	19452.7
1709.3	19437.2
1710.33	19421.7
1711.35	19405.4
1712.38	19389.3
1713.41	19373.5
1714.43	19358.9
1715.46	19346.8
1716.48	19334.8
1717.51	19322.4
1718.53	19311.6
1719.56	19298.7
1720.58	19283.4
1721.61	19265.8
1722.63	19244.6
1723.66	19221.1
1724.68	19204.5
1725.71	19192.3
1726.73	19183.1
1727.75	19172.5
1728.78	19162.1
1729.8	19151.8
1730.83	19143.3
1731.85	19132.7
1732.87	19123.1
1733.89	19113.4
1734.92	19114.1
1735.94	19136.1
1736.96	19138.7
1737.98	19123.6
1739.01	19105.9
1740.03	19069.9
1741.05	19033
1742.07	18980.5
1743.09	18952.1
1744.12	18930
1745.14	18909.8
1746.16	18902.1
1747.18	18908.8
1748.2	18904.4
1749.22	18899
1750.24	18881.5
1751.26	18864.3
1752.28	18845.6
1753.3	18831.7
1754.32	18817.5
1755.34	18808.9
1756.36	18803.6
1757.38	18800.7
1758.4	18799.5
1759.42	18800.7
1760.44	18803.9
1761.45	18808.9
1762.47	18809
1763.49	18797.3
1764.51	18771.6
1765.53	18745.1
1766.55	18733
1767.56	18721.1
1768.58	18713.3
1769.6	18703.7
1770.61	18692.6
1771.63	18680.7
1772.65	18669.4
1773.67	18658.3
1774.68	18648
1775.7	18638.5
1776.72	18629.9
1777.73	18621.1
1778.75	18611.8
1779.76	18601.9
1780.78	18591.4
1781.79	18580.1
1782.81	18568.2
1783.83	18556
1784.84	18543.4
1785.85	18530.2
1786.87	18516.5
1787.88	18502.4
1788.9	18488.7
1789.91	18476.1
1790.93	18463.5
1791.94	18454.5
1792.95	18447.6
1793.97	18443.2
1794.98	18440
1796	18435.2
1797.01	18426.4
1798.02	18400.4
1799.03	18376.4
1800.05	18352.4
1801.06	18345.1
1802.07	18337.7
1803.08	18335.5
1804.1	18328.3
1805.11	18317.1
1806.12	18304.4
1807.13	18290.1
1808.14	18274.4
1809.15	18256.9
1810.17	18237.5
1811.18	18217.7
1812.19	18197.3
1813.2	18176.1
1814.21	18150.7
1815.22	18119.7
1816.23	18087
1817.24	18059.4
1818.25	18039
1819.26	18021.7
1820.27	18023.7
1821.28	18026.9
1822.29	18033.6
1823.3	18039.9
1824.3	18042.2
1825.31	18038.2
1826.32	18020.8
1827.33	18003.5
1828.34	17982
1829.35	17958.1
1830.35	17934.2
1831.36	17905.3
1832.37	17874.1
1833.38	17846.2
1834.38	17820.9
1835.39	17802.5
1836.4	17799.7
1837.41	17798.2
1838.41	17802
1839.42	17810.8
1840.43	17819
1841.43	17806
1842.44	17794.9
1843.44	17772.9
1844.45	17745
1845.46	17710.4
1846.46	17680.5
1847.47	17654.6
1848.47	17632.9
1849.48	17615.3
1850.48	17600.8
1851.49	17589.7
1852.49	17583.1
1853.49	17580.3
1854.5	17581.5
1855.5	17585.5
1856.51	17586.9
1857.51	17583
1858.51	17526
1859.52	17505.7
1860.52	17487.2
1861.52	17480.2
1862.53	17464.8
1863.53	17448.2
1864.53	17433.6
1865.54	17421.9
1866.54	17414
1867.54	17406.5
1868.54	17400.2
1869.54	17395.6
1870.55	17392.5
1871.55	17375.9
1872.55	17358.6
1873.55	17323.5
1874.55	17306
1875.55	17293.7
1876.55	17288.6
1877.55	17284.6
1878.55	17280.9
1879.55	17278.5
1880.56	17280
1881.55	17282.5
1882.56	17288.5
1883.55	17290.5
1884.55	17257.6
1885.55	17238.3
1886.55	17218
1887.55	17196.5
1888.55	17175.4
1889.55	17156.5
1890.55	17141.1
1891.55	17128.9
1892.55	17119.6
1893.54	17113.9
1894.54	17110.6
1895.54	17110.3
1896.54	17112.7
1897.54	17118
1898.53	17085.2
1899.53	17036.5
1900.53	17019.6
1901.52	16999.2
1902.52	17002.3
1903.52	16997.7
1904.51	16985.9
1905.51	16965.3
1906.51	16953.9
1907.5	16943.2
1908.5	16932
1909.49	16919.9
1910.49	16905.9
1911.49	16890.3
1912.48	16872.6
1913.48	16852.2
1914.47	16829.4
1915.46	16803.2
1916.46	16773.3
1917.45	16738.5
1918.45	16703.8
1919.44	16686.2
1920.44	16672.2
1921.43	16665.2
1922.43	16661.1
1923.42	16659.1
1924.41	16659
1925.41	16663.3
1926.4	16669.3
1927.39	16676.3
1928.38	16682
1929.38	16667
1930.37	16646.3
1931.36	16610.4
1932.35	16607.9
1933.35	16595.8
1934.34	16580.1
1935.33	16562.7
1936.32	16547.4
1937.31	16518
1938.3	16499.7
1939.29	16488.8
1940.29	16474.2
1941.28	16461.2
1942.27	16450.8
1943.26	16423.8
1944.25	16396.5
1945.24	16366.2
1946.23	16345.4
1947.22	16316.7
1948.21	16316.5
1949.2	16327.8
1950.19	16320.8
1951.18	16306.1
1952.17	16284.9
1953.16	16260.1
1954.14	16246.3
1955.13	16237.3
1956.12	16225.4
1957.11	16220.7
1958.1	16222
1959.09	16210.5
1960.07	16190.6
1961.06	16163.3
1962.05	16128.1
1963.04	16100
1964.02	16080.5
1965.01	16065.3
1966	16055.7
1966.99	16050
1967.97	16044.5
1968.96	16035.8
1969.95	16028.2
1970.93	16019.8
1971.92	16006
1972.9	15988.8
1973.89	15970.9
1974.88	15954.8
1975.86	15939.4
1976.85	15925
1977.83	15912
1978.82	15900
1979.8	15888.9
1980.79	15879.1
1981.77	15870.3
1982.76	15862.8
1983.74	15856.3
1984.72	15850.3
1985.71	15844
1986.69	15827.1
1987.67	15805.2
1988.66	15779.9
1989.64	15758.2
1990.62	15738.5
1991.61	15721.2
1992.59	15706.9
1993.57	15696.5
1994.56	15690
1995.54	15687
1996.52	15686.7
1997.5	15686.8
1998.49	15685.2
1999.47	15680.8
2000.45	15681.3
2001.43	15680.1
2002.41	15674.4
2003.39	15654.3
2004.38	15619
2005.36	15587.7
2006.34	15558.1
2007.32	15533.9
2008.3	15509.9
2009.28	15475.9
2010.26	15485
2011.24	15510.4
2012.22	15540.2
2013.2	15546.2
2014.18	15497.4
2015.16	15451.9
2016.14	15426.1
2017.12	15387.8
2018.1	15399.4
2019.07	15389.8
2020.05	15378.8
2021.03	15368.6
2022.01	15357.5
2022.99	15337.1
2023.97	15314.6
2024.95	15295
2025.92	15275.9
2026.9	15256.1
2027.88	15244.2
2028.86	15244.6
2029.83	15249.2
2030.81	15250
2031.79	15246.2
2032.76	15238.4
2033.74	15220.3
2034.72	15199.1
2035.69	15170.7
2036.67	15136.8
2037.65	15098.1
2038.62	15062.9
2039.6	15040.7
2040.57	15016.8
2041.55	15000.7
2042.52	14994.1
2043.5	14988.9
2044.47	14984.8
2045.45	14978.4
2046.42	14969
2047.4	14957.6
2048.37	14943.4
2049.35	14927.7
2050.32	14908.2
2051.29	14885.9
2052.27	14862.8
2053.24	14841.7
2054.21	14834.8
2055.19	14828.5
2056.16	14829.6
2057.13	14840.1
2058.11	14830.7
2059.08	14823
2060.05	14788.8
2061.02	14757.8
2062	14719.1
2062.97	14684.6
2063.94	14657
2064.91	14641.9
2065.89	14636.6
2066.86	14634
2067.83	14629
2068.8	14621.9
2069.77	14613.2
2070.74	14604.3
2071.71	14594.8
2072.68	14583.5
2073.65	14572.1
2074.62	14559
2075.59	14545.6
2076.56	14533.2
2077.53	14524.1
2078.5	14563.3
2079.47	14543.7
2080.44	14522.9
2081.41	14476.1
2082.38	14431.5
2083.35	14435
2084.32	14432.7
2085.29	14419.5
2086.26	14400.5
2087.23	14374.2
2088.19	14350.5
2089.16	14340.1
2090.13	14333.7
2091.1	14327.9
2092.07	14321.2
2093.03	14316.5
2094	14302.5
2094.97	14282.3
2095.94	14257.6
2096.9	14232.5
2097.87	14206.1
2098.84	14194.9
2099.8	14185.1
2100.77	14179.4
2101.74	14166.6
2102.7	14142.8
2103.67	14130.4
2104.63	14119.5
2105.6	14107.6
2106.56	14100.5
2107.53	14088.9
2108.49	14079.5
2109.46	14056
2110.42	14029.9
2111.39	14031.1
2112.35	14034.1
2113.32	14025.6
2114.28	14008.6
2115.25	13987.5
2116.21	13972.5
2117.17	13957.7
2118.14	13941.6
2119.1	13925.6
2120.07	13909.6
2121.03	13894.5
2121.99	13880.5
2122.96	13867.5
2123.92	13855.9
2124.88	13846.1
2125.84	13837.3
2126.81	13829.9
2127.77	13821.8
2128.73	13812.3
2129.69	13800.8
2130.65	13786.2
2131.62	13770.1
2132.58	13750
2133.54	13727.6
2134.5	13702.4
2135.46	13677.8
2136.42	13660.2
2137.38	13650.8
2138.34	13658.1
2139.3	13654.6
2140.26	13646.4
2141.22	13635.8
2142.18	13613
2143.14	13598
2144.1	13589.1
2145.06	13580.4
2146.02	13573.3
2146.98	13560.9
2147.94	13546.6
2148.9	13530.1
2149.86	13509.3
2150.82	13486
2151.78	13459.8
2152.74	13432.9
2153.69	13419.2
2154.65	13404.1
2155.61	13392.4
2156.57	13383.2
2157.53	13378
2158.48	13371.1
2159.44	13354.4
2160.4	13337.1
2161.36	13314.6
2162.31	13296.2
2163.27	13281.9
2164.23	13271.4
2165.18	13264.9
2166.14	13265
2167.1	13269.4
2168.05	13262.1
2169.01	13243
2169.96	13212.7
2170.92	13174.7
2171.88	13133.4
2172.83	13097.2
2173.79	13060.8
2174.74	13021.9
2175.7	12982.9
2176.65	12946.5
2177.6	12919.7
2178.56	12901.7
2179.51	12893.7
2180.47	12897.9
2181.42	12915.6
2182.38	12921.5
2183.33	12918.8
2184.28	12914.8
2185.24	12904
2186.19	12882.1
2187.14	12857.8
2188.1	12838.8
2189.05	12817.9
2190	12800.7
2190.96	12787.6
2191.91	12777.2
2192.86	12763.3
2193.81	12745.6
2194.76	12727.4
2195.72	12702.7
2196.67	12683.5
2197.62	12666.1
2198.57	12650
2199.52	12635.5
2200.47	12622.9
2201.43	12612.1
2202.38	12602.9
2203.33	12594.1
2204.28	12585.6
2205.23	12577.2
2206.18	12566.9
2207.13	12559.3
2208.08	12552.6
2209.03	12547.9
2209.98	12542.3
2210.93	12535.5
2211.88	12528
2212.83	12511.6
2213.78	12491
2214.73	12471.3
2215.67	12462.5
2216.62	12453.6
2217.57	12444.2
2218.52	12434.3
2219.47	12423.5
2220.42	12412.2
2221.37	12396.7
2222.31	12382.9
2223.26	12373.3
2224.21	12371.9
2225.16	12378
2226.1	12363.3
2227.05	12344.2
2228	12324.6
2228.94	12309.3
2229.89	12299.3
2230.84	12294.4
2231.78	12294.6
2232.73	12297.8
2233.68	12301.3
2234.62	12300
2235.57	12292.8
2236.51	12271
2237.46	12242.9
2238.41	12216.4
2239.35	12202.8
2240.3	12226.2
2241.24	12236.1
2242.19	12234
2243.13	12213.5
2244.07	12190.4
2245.02	12165.7
2245.96	12184.3
2246.91	12181.5
2247.85	12175.5
2248.8	12160.3
2249.74	12150.6
2250.68	12141.7
2251.63	12138.6
2252.57	12139.7
2253.51	12143.8
2254.46	12138.3
2255.4	12128.6
2256.34	12119.5
2257.28	12111.6
2258.23	12102
2259.17	12092.1
2260.11	12082.6
2261.05	12074.1
2262	12066.5
2262.94	12059.6
2263.88	12053.8
2264.82	12048.6
2265.76	12043.7
2266.7	12039.4
2267.64	12032.1
2268.58	12030.2
2269.53	12032.8
2270.47	12038
2271.41	12043.6
2272.35	12047.4
2273.29	12046.8
2274.23	12031
2275.17	12022.7
2276.11	12020.8
2277.05	12012.7
2277.99	12001.5
2278.93	11987.2
2279.86	11972.3
2280.8	11971.9
2281.74	11980.4
2282.68	12029.1
2283.62	12025.8
2284.56	12009.9
2285.5	11997.1
2286.44	11982.9
2287.37	11970
2288.31	11957.4
2289.25	11945.2
2290.19	11932.9
2291.12	11920.7
2292.06	11908.6
2293	11896.6
2293.94	11890.5
2294.87	11888.7
2295.81	11880.1
2296.75	11869.8
2297.68	11868.5
2298.62	11869.4
2299.55	11871.2
2300.49	11869.7
2301.43	11867
2302.36	11862.2
2303.3	11854.1
2304.23	11840.7
2305.17	11823.6
2306.1	11811.1
2307.04	11799.6
2307.98	11783.8
2308.91	11765.9
2309.84	11746.8
2310.78	11726.9
2311.71	11707.6
2312.65	11692.2
2313.58	11680.9
2314.52	11674.2
2315.45	11673.8
2316.38	11673.8
2317.32	11666.3
2317.72	11661
2318.66	11647.6
2319.6	11633.6
2320.54	11613.1
2321.48	11604
2322.41	11600.7
2323.35	11595.4
2324.29	11587.3
2325.23	11581
2326.16	11574.7
2327.1	11568.5
2328.04	11561.9
2328.97	11555
2329.91	11547.6
2330.85	11540
2331.78	11532
2332.72	11523.4
2333.66	11514.3
2334.59	11504.5
2335.53	11493.6
2336.46	11475.4
2337.4	11453.5
2338.33	11438.8
2339.27	11429.3
2340.2	11419.1
2341.14	11405.9
2342.07	11394.8
2343.01	11382.8
2343.94	11374.5
2344.88	11367.8
2345.81	11361.5
2346.75	11355.7
2347.68	11349.9
2348.61	11343.4
2349.55	11333.6
2350.48	11322.1
2351.41	11307.3
2352.35	11291.7
2353.28	11278
2354.21	11267.5
2355.15	11266.8
2356.08	11268.5
2357.01	11272.7
2357.94	11268.8
2358.88	11253.8
2359.81	11220.5
2360.74	11202.8
2361.67	11196.1
2362.6	11245.3
2363.54	11212.4
2364.47	11201.1
2365.4	11193.2
2366.33	11188.2
2367.26	11186.7
2368.19	11185.3
2369.12	11168.3
2370.05	11156.5
2370.98	11152.6
2371.91	11149.9
2372.84	11146.7
2373.77	11144.3
2374.7	11140.3
2375.63	11136.5
2376.56	11127.2
2377.49	11115.2
2378.42	11101.8
2379.35	11082.5
2380.28	11061.6
2381.21	11036.8
2382.14	11013.7
2383.07	11017.3
2384	11031.6
2384.92	11050.1
2385.85	11057
2386.78	11062.6
2387.71	11060.9
2388.64	11055
2389.56	11045.9
2390.49	11034.4
2391.42	11020
2392.35	11005.2
2393.27	10991.7
2394.2	10977.9
2395.13	10965.3
2396.05	10953
2396.98	10941.4
2397.91	10930.8
2398.83	10919.7
2399.76	10909.4
2400.69	10899.3
2401.61	10891
2402.54	10886.6
2403.46	10885.2
2404.39	10885.6
2405.31	10888.7
2406.24	10894.1
2407.17	10903.7
2408.09	10897.6
2409.01	10872.4
2409.94	10826.6
2410.86	10809.5
2411.79	10795.5
2412.71	10825.6
2413.64	10871.6
2414.56	10823.1
2415.49	10692.7
2416.41	10751
2417.33	10772.6
2418.26	10826.3
2419.18	10800.7
2420.1	10776
2421.03	10745.5
2421.95	10738.1
2422.87	10724.5
2423.79	10708.7
2424.72	10689.8
2425.64	10671.9
2426.56	10653.2
2427.48	10636
2428.41	10620.5
2429.33	10607.5
2430.25	10597.1
2431.17	10590.5
2432.09	10589.9
2433.01	10593.6
2433.93	10595.6
2434.86	10595.1
2435.78	10591.8
2436.7	10579.8
2437.62	10562.1
2438.54	10542.1
2439.46	10518.6
2440.38	10496.7
2441.3	10485.4
2442.22	10474.2
2443.14	10464
2444.06	10454.7
2444.98	10446.3
2445.9	10441.5
2446.82	10430.9
2447.73	10411.4
2448.65	10389
2449.57	10364.4
2450.49	10351
2451.41	10340.5
2452.33	10335.4
2453.25	10345.6
2454.17	10355.3
2455.08	10361.7
2456	10363.6
2456.92	10360.5
2457.84	10340.9
2458.75	10317.5
2459.67	10291.9
2460.59	10263.9
2461.51	10235.5
2462.42	10222.5
2463.34	10223.5
2464.26	10227.2
2465.17	10234.8
2466.09	10231
2467	10216.8
2467.92	10194.8
2468.84	10167.5
2469.75	10140.4
2470.67	10126.2
2471.58	10125.5
2472.5	10127.7
2473.42	10142.5
2474.33	10149.7
2475.25	10148
2476.16	10137.8
2477.08	10117
2477.99	10100.6
2478.9	10094.1
2479.82	10090.4
2480.73	10084.1
2481.65	10080.2
2482.56	10075.3
2483.47	10051.1
2484.39	10046.3
2485.3	10042.9
2486.22	10044.6
2487.13	10051.5
2488.04	10041.9
2488.96	10013.4
2489.87	10008.9
2490.78	10011.9
2491.69	10016.6
2492.61	10015.9
2493.52	9993.78
2494.43	9968.58
2495.34	9942.74
2496.25	9917.8
2497.17	9908.08
2498.08	9922.01
2498.99	9926.08
2499.9	9930.58
2500.81	9934.26
2501.72	9935.67
2502.63	9932.14
2503.55	9926.28
2504.46	9918.17
2505.37	9908.55
2506.28	9898.07
2507.19	9895.99
2508.1	9893.84
2509.01	9895.8
2509.92	9901.24
2510.83	9909.79
2511.74	9914.57
2512.65	9901.26
2513.56	9879.71
2514.47	9860.37
2515.37	9842.91
2516.28	9827.61
2517.19	9814.96
2518.1	9804.74
2519.01	9799.92
2519.92	9811.82
2520.83	9832.81
2521.73	9841.03
2522.64	9832.96
2523.55	9817.99
2524.46	9795.45
2525.37	9782.38
2526.27	9767.43
2527.18	9753.79
2528.09	9739.53
2529	9728.53
2529.9	9725.27
2530.81	9734.07
2531.72	9736.57
2532.62	9728.18
2533.53	9714.59
2534.44	9696.71
2535.34	9677.48
2536.25	9661.48
2537.15	9648.18
2538.06	9636.61
2538.96	9626.79
2539.87	9618.63
2540.78	9612.11
2541.68	9608.44
2542.59	9605.22
2543.49	9586.83
2544.4	9570.46
2545.3	9558.87
2546.21	9549.69
2547.11	9543.08
2548.01	9539
2548.92	9539.22
2549.82	9539.87
2550.73	9540.36
2551.63	9538.92
2552.53	9533.91
2553.44	9525.71
2554.34	9515.2
2555.24	9501.62
2556.15	9487
2557.05	9471.88
2557.95	9459.55
2558.86	9451.18
2559.76	9446.02
2560.66	9442.31
2561.56	9438.67
2562.46	9432.22
2563.37	9418.03
2564.27	9401.71
2565.17	9384.15
2566.07	9368.34
2566.97	9355.44
2567.88	9344.81
2568.78	9338.95
2569.68	9336.07
2570.58	9334.49
2571.48	9335.84
2572.38	9313.79
2573.28	9297.78
2574.18	9267.33
2575.08	9254.66
2575.98	9243.03
2576.88	9243.23
2577.78	9237.01
2578.68	9220.99
2579.58	9198.5
2580.48	9178.58
2581.38	9155.65
2582.28	9148.24
2583.18	9142.89
2584.08	9143.41
2584.98	9151.87
2585.88	9164.65
2586.77	9168.36
2587.67	9159.8
2588.57	9143.33
2589.47	9119.42
2590.37	9095.89
2591.27	9077.83
2592.16	9063.62
2593.06	9054.65
2593.96	9049.33
2594.86	9048.68
2595.75	9051.05
2596.65	9056.36
2597.55	9061.2
2598.45	9050.25
2599.34	9025.47
2600.24	9007.76
2601.13	8993.88
2602.03	8986.36
2602.93	8983.99
2603.82	8984.97
2604.72	8990.94
2605.62	8990.02
2606.51	8971.4
2607.41	8950.91
2608.3	8934.28
2609.2	8921.76
2610.09	8913.69
2610.99	8908.39
2611.88	8905.85
2612.78	8906.45
2613.67	8908.26
2614.57	8910.13
2615.46	8905.5
2616.36	8887.19
2617.25	8874.04
2618.14	8844.2
2619.04	8828.34
2619.93	8810.79
2620.83	8801.45
2621.72	8800.65
2622.61	8799.78
2623.5	8797.14
2624.4	8793.03
2625.29	8787.83
2626.18	8781.58
2627.08	8774.55
2627.97	8766.69
2628.86	8758.39
2629.75	8749.54
2630.65	8741.18
2631.54	8732.2
2632.43	8723.63
2633.32	8707.58
2634.21	8666.33
2635.11	8640.38
2636	8626.06
2636.89	8624.44
2637.78	8632.52
2638.67	8632.6
2639.56	8621.71
2640.45	8606.88
2641.34	8593.81
2642.23	8579.33
2643.12	8564.44
2644.01	8549.99
2644.9	8535.81
2645.79	8521.24
2646.68	8506.91
2647.57	8492.95
2648.46	8481.02
2649.35	8475.89
2650.24	8476.77
2651.13	8487.95
2652.02	8491.32
2652.91	8489.5
2653.8	8484.09
2654.69	8470.77
2655.58	8444.98
2656.46	8412.03
2657.35	8394.02
2658.24	8387.85
2659.13	8386.61
2660.02	8389.48
2660.9	8393.17
2661.79	8392.66
2662.68	8387.88
2663.57	8379.24
2664.45	8370.09
2665.34	8359.64
2666.23	8348.02
2667.11	8337.09
2668	8327.08
2668.89	8318.07
2669.77	8310.06
2670.66	8303.5
2671.55	8300.75
2672.43	8301.15
2673.32	8304.79
2674.21	8304.23
2675.09	8290.17
2675.98	8268.7
2676.86	8239.65
2677.75	8219.54
2678.63	8200.91
2679.52	8187.08
2680.4	8188.65
2681.29	8183.42
2682.17	8181.17
2683.06	8175.76
2683.94	8167.36
2684.82	8145.93
2685.71	8155.35
2686.59	8169.43
2687.48	8178.53
2688.36	8147.06
2689.24	8116.2
2690.13	8073.94
2691.01	8049.21
2691.89	8048.03
2692.78	8050.69
2693.66	8050.12
2694.54	8048.53
2695.43	8047.07
2696.31	8042.5
2697.19	8036.01
2698.07	8027.91
2698.96	8018.64
2699.84	8008.51
2700.72	7999.01
2701.6	8003.12
2702.48	8006.99
2703.36	7979.66
2704.25	7956.92
2705.13	7950.4
2706.01	7947.12
2706.89	7945.02
2707.77	7936.34
2708.65	7927.75
2709.53	7917.9
2710.41	7906.46
2711.29	7893.53
2712.17	7878.85
2713.05	7863.3
2713.93	7850.21
2714.81	7846.42
2715.69	7844.34
2716.57	7834.68
2717.45	7823.07
2718.33	7812.32
2719.21	7802.94
2720.09	7794.9
2720.97	7788.19
2721.85	7783.09
2722.73	7779.38
2723.61	7777.59
2724.48	7777.29
2725.36	7777.94
2726.24	7779.19
2727.12	7780.02
2728	7781.27
2728.88	7781.13
2729.75	7778.69
2730.63	7773.79
2731.51	7766.98
2732.39	7758.19
2733.26	7747.7
2734.14	7735.42
2735.02	7721.79
2735.89	7706.91
2736.77	7691.43
2737.65	7682.89
2738.52	7685.16
2739.4	7680.08
2740.28	7677.68
2741.15	7674.48
2742.03	7670.08
2742.9	7662.08
2743.78	7652.12
2744.65	7640.25
2745.53	7626.45
2746.41	7615.6
2747.28	7606.73
2748.16	7598.48
2749.03	7589.29
2749.91	7580.76
2750.78	7573.01
2751.66	7566.98
2752.53	7562.23
2753.4	7558.75
2754.28	7556.06
2755.15	7557.01
2756.02	7561.58
2756.9	7565.92
2757.77	7558.79
2758.65	7538.16
2759.52	7524.8
2760.39	7511.5
2761.27	7499
2762.14	7488.94
2763.01	7480.51
2763.88	7473.43
2764.76	7467.66
2765.63	7463.52
2766.5	7460.43
2767.37	7459.43
2768.25	7459.59
2769.12	7460.12
2769.99	7460.09
2770.86	7446.28
2771.73	7430.79
2772.61	7411.55
2773.48	7396.28
2774.35	7382.59
2775.22	7377.11
2776.09	7372.94
2776.96	7369.47
2777.83	7366.86
2778.7	7365.16
2779.57	7364.5
2780.44	7361.91
2781.31	7357.67
2782.18	7350.79
2783.05	7338.66
2783.92	7320.3
2784.79	7297.2
2785.66	7285.04
2786.53	7278.89
2787.4	7279.22
2788.27	7285.97
2789.14	7294.95
2790.01	7290.96
2790.88	7278.89
2791.75	7274.54
2792.62	7274.93
2793.48	7275.3
2794.35	7278.83
2795.22	7271.95
2796.09	7254.73
2796.96	7245.53
2797.82	7232.67
2798.69	7228.52
2799.56	7224.44
2800.43	7222.17
2801.29	7219.39
2802.16	7215.84
2803.03	7210.22
2803.9	7200.92
2804.76	7189.84
2805.63	7177.23
2806.5	7162.11
2807.36	7144.13
2808.23	7125.41
2809.09	7108.49
2809.96	7098.61
2810.83	7090.8
2811.69	7085.1
2812.56	7086.2
2813.42	7091.09
2814.29	7097.65
2815.15	7105.42
2816.02	7100.83
2816.88	7096.21
2817.75	7088.37
2818.61	7078.57
2819.48	7064.65
2820.34	7049.64
2821.21	7034.03
2822.07	7021.06
2822.94	7014.61
2823.8	7008.24
2824.66	7002.9
2825.53	6997.25
2826.39	6991.71
2827.26	6985.45
2828.12	6978.77
2828.98	6971.75
2829.85	6963.75
2830.71	6955.26
2831.57	6945.52
2832.43	6935.26
2833.3	6930.44
2834.16	6925.1
2835.02	6929.43
2835.88	6924.92
2836.75	6921.94
2837.61	6910.57
2838.47	6891.23
2839.33	6897.33
2840.19	6903.48
2841.06	6907.27
2841.92	6900.53
2842.78	6892.24
2843.64	6882.89
2844.5	6863.62
2845.36	6850.29
2846.22	6840.96
2847.08	6835.38
2847.94	6830.97
2848.81	6826.98
2849.67	6822.8
2850.53	6818.73
2851.39	6815.3
2852.25	6811.86
2853.11	6806.22
2853.97	6797.61
2854.82	6784.83
2855.68	6778.61
2856.54	6774.09
2857.4	6772.27
2858.26	6772.63
2859.12	6775.36
2859.98	6780.2
2860.84	6787.31
2861.7	6790.14
2862.56	6774.04
2863.41	6762.03
2864.27	6749.67
2865.13	6740.6
2865.99	6736.92
2866.85	6738.73
2867.7	6732.45
2868.56	6706.94
2869.42	6697.23
2870.28	6704.77
2871.13	6710.11
2871.99	6712.45
2872.85	6684.82
2873.7	6665.38
2874.56	6644.08
2875.42	6646.42
2876.27	6645.06
2877.13	6644.41
2877.99	6643.95
2878.84	6643.91
2879.7	6643.98
2880.56	6634.79
2881.41	6624.95
2882.27	6614.63
2883.12	6603.72
2883.98	6592.04
2884.83	6579.6
2885.69	6566.21
2886.54	6557.87
2887.4	6550.6
2888.25	6544.53
2889.11	6539.58
2889.96	6535.54
2890.82	6532.47
2891.67	6529.51
2892.52	6530.05
2893.38	6519.09
2894.23	6506.33
2895.09	6504.4
2895.94	6505.13
2896.79	6507.42
2897.65	6510.77
2898.5	6501.88
2899.35	6487.46
2900.21	6473.94
2901.06	6452.95
2901.91	6437.17
2902.76	6421.19
2903.62	6417.38
2904.47	6419.02
2905.32	6418.31
2906.17	6417.18
2907.03	6414.96
2907.88	6411.49
2908.73	6406.84
2909.58	6401.3
2910.43	6394.56
2911.28	6386.67
2912.14	6377.46
2912.99	6365.27
2913.84	6349.25
2914.69	6327.3
2915.54	6307.5
2916.39	6308.91
2917.24	6312.52
2918.09	6320.78
2918.94	6320.36
2919.79	6319.03
2920.64	6314.88
2921.49	6308.69
2922.34	6298.84
2923.19	6287.1
2924.04	6272.14
2924.89	6258.83
2925.74	6255.09
2926.59	6253.12
2927.44	6245.83
2928.29	6241.9
2929.14	6235.4
2929.98	6218.6
2930.83	6205.52
2931.68	6191.06
2932.53	6180.5
2933.38	6176.14
2934.23	6179.65
2935.07	6179.16
2935.92	6174.55
2936.77	6166
2937.62	6156.09
2938.47	6131.36
2939.31	6117.44
2940.16	6105.78
2941.01	6102.14
2941.85	6110.94
2942.7	6123.19
2943.55	6128.14
2944.39	6120.07
2945.24	6111.89
2946.09	6099.58
2946.93	6084.75
2947.78	6070.69
2948.63	6059.88
2949.47	6052.06
2950.32	6047.8
2951.16	6044.41
2952.01	6043.17
2952.85	6045.42
2953.7	6049.83
2954.55	6084.96
2955.39	6019.98
2956.24	5994.64
2957.08	6034.64
2957.92	6038.86
2958.77	6035.76
2959.61	6035.36
2960.46	6033.58
2961.3	6028.12
2962.15	6021.43
2962.99	6011.99
2963.83	6001.17
2964.68	5989.13
2965.52	5976.04
2966.37	5964.16
2967.21	5951.34
2968.05	5943.82
2968.9	5937.49
2969.74	5937.04
2970.58	5935.73
2971.42	5932.24
2972.27	5927.21
2973.11	5920.73
2973.95	5914.16
2974.79	5907.6
2975.64	5901.95
2976.48	5897.83
2977.32	5893.43
2978.16	5888.62
2979	5881.74
2979.85	5873.33
2980.69	5862.9
2981.53	5855.55
2982.37	5850.74
2983.21	5847.88
2984.05	5845.89
2984.89	5844.56
2985.73	5844.56
2986.57	5844.33
2987.41	5843.51
2988.25	5840.47
2989.1	5835.61
2989.94	5828.67
2990.77	5814.49
2991.62	5808.69
2992.45	5803.77
2993.29	5801.43
2994.13	5802.46
2994.97	5805.17
2995.81	5800.38
2996.65	5796.24
2997.49	5788.74
2998.33	5783.94
2999.17	5768.39
