200.833	16160.9
202.102	16186.9
203.371	16177
204.639	16170.3
205.907	16205.4
207.175	16229.7
208.442	16232.2
209.71	16238.1
210.977	16245.6
212.244	16255
213.511	16265.4
214.777	16277.8
216.042	16290.5
217.309	16305.7
218.575	16322.1
219.84	16336.2
221.106	16345.7
222.371	16352.7
223.635	16368.5
224.9	16391.6
226.165	16420.3
227.429	16452.8
228.694	16493.9
229.956	16539.6
231.22	16587
232.484	16634.1
233.747	16679.9
235.011	16716.7
236.272	16743
237.535	16766.4
238.798	16788.1
240.06	16809.1
241.321	16829.6
242.583	16849.8
243.845	16868.3
245.105	16886.6
246.367	16904.5
247.628	16923.6
248.888	16965.8
250.149	16997.3
251.409	17019
252.67	17030.9
253.928	17032.9
255.189	17025.4
256.447	17010.3
257.707	17004.7
258.966	17000.3
260.224	17013.9
261.483	17045.5
262.742	17074.5
263.999	17099.5
265.257	17122.4
266.514	17145.1
267.772	17164.7
269.028	17183
270.286	17199.6
271.543	17214.9
272.799	17228.5
274.056	17241.3
275.311	17252.7
276.568	17263
277.823	17272.3
279.079	17282.5
280.333	17296.2
281.589	17315.5
282.843	17342.9
284.099	17373.3
285.352	17410.7
286.607	17447.4
287.86	17481.1
289.114	17510.8
290.368	17537.5
291.621	17561
292.875	17580.8
294.127	17598.3
295.38	17611.2
296.632	17620.2
297.884	17619.2
299.137	17610.7
300.388	17598.8
301.641	17593.3
302.891	17587.2
304.142	17580.9
305.394	17573.8
306.644	17569.7
307.894	17569.3
309.146	17572.6
310.395	17582.3
311.645	17601.5
312.895	17624.3
314.144	17654
315.393	17683.7
316.642	17698.8
317.892	17716.1
319.14	17726.7
320.388	17742
321.637	17758.9
322.885	17776.3
324.132	17793.9
325.38	17812
326.628	17830.6
327.875	17849.2
329.122	17867.9
330.368	17886.6
331.614	17905.2
332.862	17923.2
334.108	17940.2
335.353	17956.1
336.599	17970.3
337.844	17978.4
339.089	17977.6
340.335	17984.2
341.58	17994.6
342.824	18014
344.068	18037.9
345.312	18053.2
346.556	18056.7
347.8	18059.4
349.043	18052.8
350.286	18048.2
351.53	18055.8
352.774	18069.9
354.016	18082.7
355.259	18102.5
356.501	18121.7
357.743	18134.2
358.985	18141.5
360.227	18146.1
361.468	18151.8
362.709	18156.7
363.95	18160.1
365.191	18162.2
366.432	18162.9
367.672	18162.5
368.912	18160.3
370.152	18156
371.392	18150.8
372.632	18145.4
373.871	18157.5
375.11	18167.6
376.348	18184.4
377.587	18204.8
378.825	18228.1
380.064	18249.6
381.302	18262.9
382.54	18258.6
383.778	18256.9
385.016	18256.9
386.253	18262
387.489	18269.8
388.726	18279.1
389.963	18298.7
391.199	18318.6
392.436	18339.2
393.672	18358.5
394.907	18374.4
396.142	18376.7
397.378	18376.7
398.614	18370.9
399.849	18363.6
401.082	18355.1
402.317	18358.6
403.552	18365.3
404.786	18382.7
406.019	18405
407.253	18434.6
408.487	18468
409.721	18499.3
410.953	18529
412.186	18519.8
413.419	18515.8
414.651	18511
415.883	18505.4
417.116	18501.6
418.347	18497.2
419.579	18493
420.811	18489.6
422.041	18486.9
423.272	18484.8
424.504	18487.2
425.733	18494.9
426.964	18521.3
428.194	18541.9
429.424	18541.2
430.654	18525.5
431.883	18526.8
433.113	18549
434.341	18591
435.571	18699.9
436.799	18678.9
438.028	18665.1
439.257	18626.5
440.484	18620.6
441.713	18641.9
442.94	18652.9
444.168	18661.6
445.394	18669.7
446.622	18677.8
447.848	18685
449.076	18690.8
450.301	18696.1
451.528	18700.6
452.754	18704.5
453.979	18707.6
455.205	18710.1
456.43	18712
457.656	18713.5
458.88	18713.4
460.106	18712
461.33	18709.2
462.554	18707.7
463.779	18704.7
465.002	18705.5
466.225	18711.8
467.45	18725.3
468.672	18747.7
469.895	18756.1
471.119	18755.4
472.341	18756.9
473.563	18739.5
474.786	18718.5
476.008	18698.2
477.229	18683
478.452	18675.6
479.673	18674.3
480.894	18678.7
482.115	18680.9
483.337	18681.9
484.557	18682.5
485.777	18683.7
486.997	18685.2
488.218	18686.5
489.438	18686.9
490.657	18686.4
491.876	18679.1
493.096	18672
494.315	18656.6
495.533	18633.3
496.752	18611.7
497.97	18598.4
499.188	18612
500.407	18628.8
501.625	18641.8
502.842	18644.6
504.059	18646.1
505.276	18647.5
506.493	18649.6
507.71	18653.4
508.926	18659.9
510.142	18672.9
511.358	18683.6
512.575	18694.4
513.791	18702.9
515.006	18710.7
516.222	18718.4
517.437	18727.8
518.651	18739.2
519.866	18752.7
521.081	18769.7
522.295	18788.3
523.509	18808.7
524.723	18830.4
525.937	18850
527.15	18861.9
528.363	18861.7
529.576	18851.8
530.789	18848.1
532.002	18840.3
533.215	18832.6
534.426	18821
535.638	18819.9
536.85	18827.3
538.061	18843.9
539.273	18858.6
540.484	18869.3
541.695	18876.5
542.906	18870.2
544.117	18846.4
545.327	18834.3
546.537	18824.6
547.747	18820.4
548.957	18824.3
550.167	18833
551.377	18848.6
552.585	18868.9
553.794	18893.3
555.003	18917.7
556.212	18926.1
557.421	18929.6
558.628	18928
559.836	18919.9
561.044	18906.1
562.252	18887.4
563.458	18863.6
564.666	18847.6
565.873	18836.2
567.08	18833.5
568.286	18847
569.493	18867.7
570.699	18890
571.904	18898.1
573.111	18902.5
574.317	18903.5
575.521	18900.7
576.727	18893.7
577.932	18883.4
579.136	18870.5
580.341	18857.9
581.544	18842.1
582.749	18839.8
583.954	18851.2
585.156	18869
586.361	18877.6
587.563	18896.9
588.767	18907.8
589.97	18910.9
591.172	18902.6
592.375	18895.9
593.577	18880.5
594.78	18883.5
595.981	18895.9
597.183	18910.5
598.384	18923
599.586	18911.7
600.786	18894.7
601.988	18883.6
603.188	18863.4
604.389	18852.4
605.589	18849.2
606.79	18856.3
607.989	18855.5
609.188	18847.3
610.389	18846.7
611.587	18816.4
612.787	18800.8
613.986	18793.3
615.184	18784.5
616.383	18773.9
617.581	18761.8
618.78	18747.8
619.977	18731.9
621.174	18714.1
622.373	18695.3
623.57	18675.6
624.766	18656.9
625.964	18640.6
627.16	18626.8
628.356	18615.6
629.554	18607.8
630.749	18603
631.945	18600
633.14	18598.5
634.337	18597.6
635.532	18597.1
636.726	18597
637.921	18597
639.117	18596.9
640.311	18596.5
641.505	18596.5
642.699	18596.2
643.892	18596.1
645.087	18596.7
646.28	18598.7
647.473	18611.6
648.666	18618.8
649.859	18621.7
651.051	18620.7
652.245	18617.5
653.437	18621.1
654.629	18626.7
655.821	18633.9
657.012	18642.8
658.204	18652.5
659.395	18663.1
660.586	18668.5
661.777	18657.6
662.967	18653
664.158	18646.6
665.349	18642.8
666.539	18649.5
667.729	18658.6
668.919	18666.4
670.109	18674.2
671.298	18681.7
672.487	18688.5
673.676	18689.9
674.865	18691.3
676.053	18690.9
677.242	18688.5
678.43	18683.3
679.616	18672.3
680.804	18649.9
681.992	18627.9
683.179	18614.1
684.366	18605.5
685.554	18602
686.74	18602.9
687.927	18628.5
689.114	18642.4
690.3	18647.5
691.486	18640.4
692.671	18619.9
693.856	18582.2
695.042	18539.8
696.227	18522.3
697.413	18528.7
698.598	18546.1
699.781	18559.3
700.966	18562.6
702.15	18563.1
703.334	18561.1
704.518	18553.1
705.701	18541.8
706.885	18525.5
708.068	18505.9
709.252	18485.2
710.433	18464.6
711.616	18466.6
712.799	18463.1
713.98	18464.6
715.163	18471.4
716.345	18474.2
717.527	18472.7
718.707	18455.8
719.889	18452.2
721.071	18456.1
722.25	18463.1
723.432	18473.8
724.611	18489
725.792	18508.1
726.972	18533.2
728.151	18552.6
729.332	18538.4
730.512	18514.4
731.69	18504.2
732.87	18488.2
734.048	18492
735.227	18513
736.405	18527.9
737.584	18545
738.761	18559.7
739.94	18566.7
741.117	18571.1
742.295	18572.5
743.471	18570.9
744.649	18566.2
745.825	18558.4
747.003	18547.7
748.179	18534.1
749.356	18517.8
750.531	18503.5
751.708	18515.4
752.883	18519.3
754.059	18532
755.234	18541.6
756.409	18549
757.585	18555
758.759	18556.7
759.934	18552.9
761.108	18545.8
762.282	18535.1
763.456	18521.2
764.63	18504
765.803	18482.8
766.977	18458.9
768.15	18439.5
769.323	18428.9
770.496	18423.2
771.668	18415.3
772.841	18408.6
774.014	18403.7
775.185	18399.9
776.357	18397.3
777.528	18395.5
778.701	18394.9
779.872	18396.4
781.042	18398.1
782.213	18399
783.383	18395.3
784.555	18387.7
785.725	18376
786.895	18361.9
788.064	18342.8
789.234	18320.8
790.404	18297.4
791.573	18277.4
792.742	18265.9
793.911	18254.2
795.08	18245.3
796.248	18237.1
797.416	18230.5
798.584	18225.6
799.753	18222.5
800.921	18221.4
802.088	18232.8
803.256	18254.8
804.423	18270
805.59	18270.6
806.756	18262.9
807.923	18248.9
809.089	18242.4
810.256	18237.3
811.422	18232
812.587	18227.9
813.753	18225.5
814.918	18224.2
816.084	18224.8
817.249	18227.3
818.414	18235.2
819.578	18243.9
820.743	18254.7
821.907	18264.6
823.072	18272.6
824.236	18278.3
825.399	18282.1
826.562	18284.8
827.725	18286.2
828.889	18286
830.052	18284.3
831.215	18281.5
832.377	18277.8
833.54	18275.5
834.701	18272.8
835.863	18271.7
837.025	18274.2
838.187	18274
839.349	18271.5
840.51	18268.2
841.67	18263.5
842.831	18263.1
843.992	18271.7
845.153	18269
846.312	18262.3
847.473	18245.8
848.633	18234.4
849.793	18199.5
850.951	18187.8
852.111	18178.4
853.27	18166.9
854.428	18155.8
855.588	18144.3
856.747	18128.3
857.904	18116.3
859.063	18107.1
860.221	18100.1
861.378	18094.1
862.536	18089.6
863.694	18085.4
864.85	18079.9
866.008	18073.5
867.164	18064.6
868.321	18052.1
869.478	18036.8
870.633	18017.8
871.79	17993.6
872.945	17964.4
874.101	17939.8
875.256	17926.4
876.412	17917.2
877.566	17914.6
878.722	17918.1
879.876	17927.8
881.031	17944.4
882.185	17962.5
883.34	17963.1
884.493	17954
885.647	17936.1
886.8	17850.8
887.954	17852.3
889.107	17839.2
890.261	17837.6
891.413	17837.3
892.565	17842.6
893.718	17857.3
894.87	17859.4
896.023	17839.9
897.174	17823.8
898.326	17802.8
899.478	17836.4
900.629	17874.6
901.779	17847.2
902.931	17829.4
904.081	17813.5
905.231	17799.8
906.383	17797.1
907.532	17794
908.682	17816.4
909.831	17837.9
910.982	17863.8
912.131	17869.9
913.28	17856.7
914.429	17853.8
915.578	17844.8
916.727	17850.8
917.875	17856.8
919.023	17888.7
920.171	17918.6
921.32	17926.6
922.467	17898
923.614	17825
924.761	17859.1
925.908	17863.5
927.055	17866.6
928.203	17872.6
929.349	17876.6
930.496	17878.2
931.642	17877
932.787	17873.5
933.933	17867.1
935.079	17857.3
936.224	17844
937.369	17823.6
938.514	17792.6
939.659	17779.2
940.804	17915.5
941.948	17843.2
943.092	17838
944.236	17828.8
945.38	17811.5
946.524	17790.2
947.667	17767.3
948.811	17746.6
949.954	17730.3
951.097	17715.5
952.24	17703.4
953.383	17693.4
954.525	17686.7
955.667	17682.7
956.81	17682
957.952	17681.5
959.093	17669.7
960.235	17652
961.376	17639.5
962.516	17631.2
963.658	17627.3
964.798	17629.4
965.939	17634.4
967.08	17637.8
968.22	17627.5
969.359	17615
970.499	17599.2
971.639	17583.8
972.779	17568.6
973.918	17555.6
975.056	17545.6
976.195	17539
977.334	17535.9
978.473	17536.2
979.61	17541.5
980.749	17552.9
981.887	17567.9
983.024	17584.2
984.162	17588.9
985.3	17564.6
986.437	17556.4
987.573	17552.9
988.711	17559.2
989.848	17570.2
990.983	17575.9
992.12	17578.3
993.255	17574.8
994.392	17573.6
995.528	17574.5
996.662	17572.4
997.798	17570.4
998.933	17567.4
1000.07	17564.1
1001.2	17561.2
1002.34	17560
1003.47	17563.3
1004.61	17570.1
1005.74	17579.1
1006.87	17591.1
1008.01	17599
1009.14	17599.2
1010.27	17593
1011.41	17583.8
1012.54	17570.8
1013.67	17555.8
1014.81	17540.6
1015.94	17525.2
1017.07	17511
1018.2	17497.8
1019.33	17494.2
1020.47	17483.8
1021.6	17475.3
1022.73	17475.5
1023.86	17481.5
1024.99	17488.5
1026.12	17492.7
1027.25	17492.6
1028.38	17483.7
1029.51	17436.5
1030.64	17398.1
1031.77	17370.9
1032.9	17354.9
1034.03	17350
1035.16	17354.1
1036.29	17365.9
1037.42	17364
1038.55	17344.7
1039.67	17322.3
1040.8	17301
1041.93	17289.2
1043.06	17285.5
1044.19	17281.4
1045.31	17270.4
1046.44	17251.9
1047.57	17228.5
1048.69	17197.1
1049.82	17180.5
1050.95	17171.6
1052.08	17167.4
1053.2	17167
1054.33	17157.3
1055.45	17141.4
1056.58	17124.3
1057.7	17107.9
1058.83	17093.6
1059.95	17080
1061.08	17082.8
1062.2	17090
1063.33	17097.4
1064.45	17103
1065.58	17105.3
1066.7	17105.4
1067.83	17102
1068.95	17098.2
1070.07	17093
1071.2	17087.1
1072.32	17080.3
1073.44	17076.2
1074.56	17074.5
1075.69	17077.9
1076.81	17092.6
1077.93	17107.9
1079.05	17121.7
1080.17	17129.5
1081.3	17130.8
1082.42	17125.9
1083.54	17115.6
1084.66	17104.5
1085.78	17100.5
1086.9	17106.5
1088.02	17112.2
1089.14	17117.4
1090.26	17117.7
1091.38	17112.1
1092.5	17102.3
1093.62	17086.7
1094.74	17065.6
1095.86	17066.5
1096.98	17069.3
1098.1	17065.6
1099.22	17053.1
1100.34	17039.9
1101.45	17030.3
1102.57	17024.4
1103.69	17020.2
1104.81	17020.4
1105.93	17024.8
1107.04	17034.9
1108.16	17051.7
1109.28	17082.5
1110.4	17062.5
1111.51	17021.1
1112.63	16957.7
1113.75	16950.9
1114.86	17002.8
1115.98	16983.6
1117.09	16962.1
1118.21	16938.2
1119.32	16913.2
1120.44	16887.6
1121.55	16862.7
1122.67	16849.6
1123.78	16845.7
1124.9	16842.8
1126.01	16837.1
1127.13	16828.5
1128.24	16817.6
1129.35	16804.5
1130.47	16789.3
1131.58	16771.8
1132.7	16752.3
1133.81	16730.5
1134.92	16706.7
1136.03	16680.7
1137.15	16652.9
1138.26	16622.8
1139.37	16593.3
1140.48	16575.7
1141.59	16566.5
1142.71	16561.5
1143.82	16553.4
1144.93	16547.8
1146.04	16541.3
1147.15	16531.5
1148.26	16511.4
1149.37	16479.7
1150.48	16469.9
1151.59	16477.3
1152.7	16483
1153.81	16486.9
1154.92	16488
1156.03	16486.9
1157.14	16476.9
1158.25	16442.6
1159.36	16416.4
1160.47	16396.8
1161.58	16389.5
1162.68	16388.8
1163.79	16392.1
1164.9	16393.9
1166.01	16398.4
1167.12	16404.7
1168.22	16409.8
1169.33	16409.9
1170.44	16405.4
1171.55	16397.8
1172.65	16393.6
1173.76	16392.2
1174.87	16393.3
1175.97	16396.5
1177.08	16401.4
1178.18	16408.3
1179.29	16418
1180.4	16428
1181.5	16432.9
1182.61	16434.1
1183.71	16425.8
1184.82	16409.1
1185.92	16405.6
1187.02	16399.8
1188.13	16405.2
1189.23	16411.8
1190.34	16426.6
1191.44	16441.1
1192.54	16453.9
1193.65	16461.5
1194.75	16434.3
1195.85	16425.3
1196.96	16422.6
1198.06	16421.5
1199.16	16423.5
1200.26	16425.8
1201.37	16425.1
1202.47	16423.7
1203.57	16422.3
1204.67	16419.2
1205.77	16415
1206.87	16408.9
1207.97	16401.4
1209.08	16389.1
1210.18	16345.9
1211.28	16337.2
1212.38	16332.2
1213.48	16335.7
1214.58	16345.9
1215.68	16353.8
1216.78	16341.7
1217.88	16330.5
1218.98	16320
1220.07	16311
1221.17	16303.5
1222.27	16297.8
1223.37	16293.9
1224.47	16291.8
1225.57	16292.5
1226.66	16295.7
1227.76	16265.4
1228.86	16243
1229.96	16223.3
1231.06	16202.1
1232.15	16185.8
1233.25	16173.2
1234.35	16166.3
1235.44	16162.3
1236.54	16160.3
1237.63	16158.8
1238.73	16118.1
1239.83	16094.3
1240.92	16079.5
1242.02	16092.4
1243.11	16210
1244.21	16173.9
1245.3	16134.9
1246.4	16073.8
1247.49	16046.1
1248.59	16021.5
1249.68	15997.9
1250.78	15980
1251.87	15968.3
1252.96	15961.6
1254.06	15963.6
1255.15	15970.9
1256.24	15975.1
1257.34	15982.6
1258.43	15991.5
1259.52	16003.5
1260.62	16013.7
1261.71	16021
1262.8	16010.3
1263.89	15998.1
1264.98	15942
1266.08	15898.6
1267.17	15866.5
1268.26	15915.9
1269.35	15938.2
1270.44	15948.6
1271.53	15949
1272.62	15952.6
1273.71	15959.1
1274.8	15967.2
1275.89	15975.4
1276.98	15984.7
1278.07	15994.6
1279.16	16010.3
1280.25	16023.8
1281.34	16013
1282.43	15997.6
1283.52	15992.4
1284.61	15992.8
1285.69	15995.7
1286.78	15998
1287.87	16000
1288.96	16001.6
1290.05	16002.9
1291.13	16005.4
1292.22	16009.9
1293.31	16012.7
1294.4	16014.7
1295.48	16014.5
1296.57	16006
1297.66	15991.1
1298.74	15986.6
1299.83	15984.3
1300.92	15989
1302	15995.5
1303.09	15998.3
1304.17	16002.6
1305.26	15982.9
1306.34	15959.7
1307.43	15944.6
1308.51	15940.6
1309.6	15974.9
1310.68	15981.9
1311.76	15976.3
1312.85	15968.1
1313.93	15958.7
1315.02	15946.9
1316.1	15935
1317.18	15927.2
1318.27	15921.5
1319.35	15917
1320.43	15916.2
1321.52	15914.4
1322.6	15906.9
1323.68	15890.5
1324.76	15872.5
1325.85	15858.4
1326.93	15845.5
1328.01	15833.2
1329.09	15823.5
1330.17	15815
1331.25	15807.8
1332.33	15799.1
1333.41	15792.4
1334.49	15788
1335.58	15786.6
1336.65	15787.8
1337.74	15785.9
1338.82	15778.8
1339.89	15762.5
1340.97	15747
1342.05	15723
1343.13	15707
1344.21	15696.4
1345.29	15693.7
1346.37	15707.5
1347.45	15724.2
1348.53	15727.7
1349.6	15728.7
1350.68	15715.7
1351.76	15701.7
1352.84	15684.7
1353.92	15673.2
1354.99	15660.7
1356.07	15657.3
1357.15	15660.5
1358.22	15664.3
1359.3	15668.9
1360.38	15674.3
1361.45	15680.2
1362.53	15686
1363.61	15692.7
1364.68	15699.4
1365.76	15701.4
1366.83	15693.9
1367.91	15677.5
1368.98	15658.3
1370.06	15651.5
1371.13	15651.9
1372.21	15657.2
1373.28	15667.4
1374.35	15681.9
1375.43	15686.3
1376.5	15685.8
1377.58	15680.8
1378.65	15672.1
1379.72	15661
1380.8	15653
1381.87	15645.4
1382.94	15639.3
1384.01	15631.7
1385.09	15623.5
1386.16	15614.8
1387.23	15606.1
1388.3	15598
1389.38	15593.8
1390.45	15597.8
1391.52	15600.6
1392.59	15594.4
1393.66	15580
1393.92	15575.6
1395	15560.4
1396.07	15555.9
1397.15	15550.3
1398.22	15546.9
1399.3	15545.4
1400.38	15545.8
1401.45	15546.8
1402.53	15546
1403.6	15541.8
1404.68	15532.3
1405.75	15522.7
1406.82	15511.7
1407.9	15498.8
1408.97	15485.7
1410.05	15487.8
1411.12	15488
1412.19	15490.6
1413.27	15490.5
1414.34	15486.4
1415.41	15478.7
1416.49	15466
1417.56	15450.1
1418.63	15442.8
1419.7	15439.3
1420.78	15435.4
1421.85	15427.8
1422.92	15416.6
1423.99	15400.4
1425.06	15374.8
1426.14	15361.9
1427.21	15363.9
1428.28	15370.8
1429.35	15380.1
1430.42	15392.1
1431.49	15404.1
1432.56	15404.5
1433.63	15390.7
1434.7	15369.2
1435.77	15348.8
1436.84	15343.5
1437.91	15338.2
1438.98	15333.3
1440.05	15329
1441.12	15325.7
1442.18	15322.3
1443.25	15306.5
1444.32	15294.4
1445.39	15284.8
1446.46	15277.5
1447.53	15272.8
1448.59	15269.5
1449.66	15268.9
1450.73	15270.5
1451.8	15275.3
1452.86	15282.4
1453.93	15290.5
1455	15296.8
1456.06	15277.4
1457.13	15254.4
1458.2	15232.3
1459.26	15213.2
1460.33	15205
1461.39	15210
1462.46	15234
1463.52	15259.5
1464.59	15273.5
1465.65	15277.5
1466.72	15274.6
1467.78	15266.8
1468.85	15256.6
1469.91	15250.6
1470.98	15244.2
1472.04	15236.5
1473.1	15227.8
1474.17	15218.2
1475.23	15207.9
1476.3	15182.5
1477.36	15178.3
1478.42	15183.9
1479.48	15197.2
1480.55	15226
1481.61	15246
1482.67	15248.4
1483.73	15224.4
1484.8	15208
1485.86	15193.4
1486.92	15166.2
1487.98	15143.6
1489.04	15116.6
1490.1	15092.9
1491.17	15079.3
1492.23	15091
1493.29	15117.9
1494.35	15103.8
1495.41	15100
1496.47	15098.3
1497.53	15100.9
1498.59	15102.4
1499.65	15103.2
1500.71	15101
1501.77	15093.9
1502.83	15077.1
1503.88	15059.2
1504.94	15045.5
1506	15031.9
1507.06	15020.9
1508.12	15011.9
1509.18	15004.7
1510.23	14998.7
1511.29	14993.6
1512.35	14988.9
1513.41	14981.9
1514.47	14966
1515.52	14939.8
1516.58	14887.3
1517.64	14930.6
1518.69	14918.4
1519.75	14907.2
1520.81	14900.1
1521.86	14899.1
1522.92	14904.4
1523.97	14916.7
1525.03	14916.5
1526.08	14906.2
1527.14	14889.6
1528.2	14866
1529.25	14842.7
1530.31	14832.1
1531.36	14827.3
1532.42	14825.1
1533.47	14826.1
1534.52	14827.5
1535.58	14822.7
1536.63	14810.8
1537.69	14792.9
1538.74	14781.1
1539.79	14775
1540.84	14771.6
1541.9	14769
1542.95	14770
1544	14770.1
1545.06	14771.3
1546.11	14773.7
1547.16	14776.8
1548.21	14782.8
1549.27	14789.3
1550.32	14796.7
1551.37	14802.3
1552.42	14789
1553.47	14779.3
1554.52	14768.2
1555.57	14757.8
1556.62	14746.7
1557.67	14738.3
1558.72	14724.3
1559.77	14708.3
1560.82	14691.9
1561.87	14677.9
1562.92	14668.7
1563.97	14691.8
1565.02	14723.9
1566.07	14744.4
1567.12	14751.3
1568.17	14756.1
1569.22	14756.1
1570.27	14745.2
1571.32	14728.9
1572.36	14710.5
1573.41	14691.5
1574.46	14695.2
1575.51	14707
1576.56	14711.9
1577.6	14714
1578.65	14717.5
1579.7	14719
1580.74	14720.1
1581.79	14719.2
1582.84	14715.7
1583.88	14708.1
1584.93	14691.1
1585.98	14667.5
1587.02	14621
1588.07	14608.2
1589.11	14611.7
1590.16	14624.2
1591.2	14636.4
1592.25	14645.3
1593.29	14643.4
1594.34	14633.9
1595.38	14622.8
1596.43	14610.2
1597.47	14595.8
1598.52	14582.6
1599.56	14566.4
1600.6	14549.9
1601.65	14533.3
1602.69	14519.6
1603.73	14535
1604.78	14564.5
1605.82	14543.7
1606.86	14520.7
1607.91	14499.5
1608.95	14480.5
1609.99	14461.4
1611.03	14442.8
1612.08	14425.5
1613.12	14409.7
1614.16	14395.2
1615.2	14382.3
1616.24	14371.4
1617.28	14360.4
1618.32	14350.5
1619.36	14330.5
1620.41	14314.3
1621.45	14303.7
1622.49	14293.5
1623.53	14295.5
1624.57	14290
1625.61	14279
1626.65	14267.2
1627.69	14255.5
1628.73	14243.6
1629.76	14232.3
1630.8	14221.2
1631.84	14217
1632.88	14210.4
1633.92	14204.6
1634.96	14195.1
1636	14185.3
1637.03	14176.9
1638.07	14174.4
1639.11	14178.3
1640.15	14184.9
1641.19	14183.8
1642.22	14181.3
1643.26	14169.4
1644.3	14148.8
1645.33	14140.2
1646.37	14134.1
1647.41	14129.5
1648.44	14124.9
1649.48	14119.7
1650.52	14115
1651.55	14110.5
1652.59	14107.2
1653.62	14094.3
1654.66	14075.3
1655.69	14060.6
1656.73	14041.6
1657.76	14025.5
1658.8	14012.2
1659.83	14001.8
1660.87	13994.3
1661.9	13989.4
1662.93	13987.6
1663.97	13988.6
1665	13992.3
1666.04	13998
1667.07	13998.5
1668.1	13996.9
1669.14	13991.3
1670.17	13983.1
1671.2	13972.8
1672.23	13961.9
1673.27	13949.9
1674.3	13940.6
1675.33	13940.1
1676.36	13940.1
1677.39	13940.7
1678.43	13945.8
1679.46	13952.1
1680.49	13955.7
1681.52	13955.2
1682.55	13943.2
1683.58	13928.8
1684.61	13926.6
1685.64	13926.7
1686.67	13926.5
1687.7	13923
1688.73	13913.8
1689.76	13895
1690.79	13870.9
1691.82	13855
1692.85	13841.3
1693.88	13835
1694.91	13831.5
1695.94	13826.7
1696.97	13822.7
1698	13817.7
1699.02	13801.5
1700.05	13783.5
1701.08	13771.2
1702.11	13763.7
1703.14	13762.7
1704.16	13764
1705.19	13764.3
1706.22	13765.7
1707.25	13767.9
1708.27	13761.8
1709.3	13742.4
1710.33	13719.5
1711.35	13690.5
1712.38	13667.2
1713.41	13650.3
1714.43	13637.6
1715.46	13628.9
1716.48	13624.5
1717.51	13625.2
1718.53	13630.3
1719.56	13640.2
1720.58	13644.9
1721.61	13622.9
1722.63	13586.6
1723.66	13560.5
1724.68	13535
1725.71	13507.9
1726.73	13508.2
1727.75	13521.1
1728.78	13527.4
1729.8	13530.8
1730.83	13531.7
1731.85	13533
1732.87	13533
1733.89	13530.7
1734.92	13526.4
1735.94	13516.7
1736.96	13472.1
1737.98	13426.6
1739.01	13394.8
1740.03	13389.7
1741.05	13381.2
1742.07	13374
1743.09	13368.9
1744.12	13365.8
1745.14	13364.2
1746.16	13363.5
1747.18	13363.5
1748.2	13363.8
1749.22	13364.3
1750.24	13364.9
1751.26	13365.6
1752.28	13365.5
1753.3	13362.7
1754.32	13340.7
1755.34	13324.9
1756.36	13309.1
1757.38	13296.1
1758.4	13287.2
1759.42	13280.4
1760.44	13274.8
1761.45	13271.2
1762.47	13268.5
1763.49	13267.1
1764.51	13259.3
1765.53	13243.2
1766.55	13227.3
1767.56	13201.2
1768.58	13185
1769.6	13179.3
1770.61	13177.6
1771.63	13180.2
1772.65	13181.7
1773.67	13182.5
1774.68	13168.1
1775.7	13153.5
1776.72	13141.4
1777.73	13130.2
1778.75	13122.1
1779.76	13114.4
1780.78	13107.8
1781.79	13102.7
1782.81	13099.4
1783.83	13095.9
1784.84	13092.2
1785.85	13088.7
1786.87	13085.3
1787.88	13082.2
1788.9	13079
1789.91	13075.8
1790.93	13072.2
1791.94	13072.4
1792.95	13066
1793.97	13046.7
1794.98	13001.5
1796	12964.8
1797.01	12943.3
1798.02	12943.9
1799.03	12937.1
1800.05	12934.3
1801.06	12931.3
1802.07	12939.1
1803.08	12944.4
1804.1	12950.9
1805.11	12949.4
1806.12	12942.5
1807.13	12933.8
1808.14	12922.8
1809.15	12910
1810.17	12895.2
1811.18	12879
1812.19	12862.3
1813.2	12846.6
1814.21	12832.2
1815.22	12819.3
1816.23	12809
1817.24	12799.3
1818.25	12791.7
1819.26	12784.4
1820.27	12774.5
1821.28	12754.8
1822.29	12740.4
1823.3	12728.2
1824.3	12715.5
1825.31	12703.4
1826.32	12692.1
1827.33	12680.9
1828.34	12670.1
1829.35	12659.2
1830.35	12648.3
1831.36	12636.8
1832.37	12623.9
1833.38	12611.6
1834.38	12599.1
1835.39	12600.1
1836.4	12604.8
1837.41	12599.6
1838.41	12594.7
1839.42	12585.8
1840.43	12571
1841.43	12561.6
1842.44	12559.1
1843.44	12550.2
1844.45	12541.2
1845.46	12531.4
1846.46	12512.5
1847.47	12483.7
1848.47	12455.2
1849.48	12438.6
1850.48	12435.8
1851.49	12433.3
1852.49	12429.4
1853.49	12423.4
1854.5	12414.7
1855.5	12403.9
1856.51	12390
1857.51	12375.4
1858.51	12357.1
1859.52	12354.2
1860.52	12370.6
1861.52	12389.4
1862.53	12363.5
1863.53	12356.8
1864.53	12351.2
1865.54	12340.3
1866.54	12329.8
1867.54	12312.8
1868.54	12297.8
1869.54	12285.9
1870.55	12275.7
1871.55	12268.4
1872.55	12261.5
1873.55	12255.8
1874.55	12251.2
1875.55	12247.8
1876.55	12246.1
1877.55	12244.8
1878.55	12235
1879.55	12202.8
1880.56	12180.9
1881.55	12160.2
1882.56	12142.1
1883.55	12132.3
1884.55	12139.1
1885.55	12137.5
1886.55	12136.6
1887.55	12133.5
1888.55	12132.4
1889.55	12130.7
1890.55	12128.6
1891.55	12126.2
1892.55	12123.5
1893.54	12120
1894.54	12115.5
1895.54	12103.2
1896.54	12086.3
1897.54	12066.3
1898.53	12043
1899.53	12016.1
1900.53	11992.5
1901.52	11978.6
1902.52	11976.8
1903.52	11977.1
1904.51	11975.8
1905.51	11973.8
1906.51	11969.9
1907.5	11963.5
1908.5	11961
1909.49	11957.5
1910.49	11943.5
1911.49	11920.1
1912.48	11893.4
1913.48	11876.3
1914.47	11862.2
1915.46	11848.2
1916.46	11841.7
1917.45	11839.5
1918.45	11839.9
1919.44	11839.9
1920.44	11836.1
1921.43	11833.6
1922.43	11829.9
1923.42	11823.1
1924.41	11813.1
1925.41	11799.6
1926.4	11783.1
1927.39	11764.9
1928.38	11746.9
1929.38	11729.7
1930.37	11713.3
1931.36	11697.7
1932.35	11683.2
1933.35	11669.8
1934.34	11658.7
1935.33	11651.4
1936.32	11651.4
1937.31	11661.7
1938.3	11659.4
1939.29	11654.3
1940.29	11645.9
1941.28	11635.1
1942.27	11618
1943.26	11598
1944.25	11578.5
1945.24	11560.2
1946.23	11554.4
1947.22	11551.2
1948.21	11527.5
1949.2	11514.5
1950.19	11491.2
1951.18	11471.5
1952.17	11456.5
1953.16	11445.9
1954.14	11443
1955.13	11453.7
1956.12	11459.7
1957.11	11466.5
1958.1	11482.1
1959.09	11476.1
1960.07	11457.6
1961.06	11435
1962.05	11408.9
1963.04	11388.3
1964.02	11374.3
1965.01	11368.9
1966	11358.2
1966.99	11342.3
1967.97	11328.6
1968.96	11316.2
1969.95	11304.9
1970.93	11300.7
1971.92	11296.7
1972.9	11292.3
1973.89	11287.7
1974.88	11283.1
1975.86	11278.1
1976.85	11266.9
1977.83	11255.4
1978.82	11237.3
1979.8	11216.3
1980.79	11203.7
1981.77	11202.4
1982.76	11215.6
1983.74	11263
1984.72	11234
1985.71	11211.2
1986.69	11182.2
1987.67	11188.2
1988.66	11189.8
1989.64	11198
1990.62	11174.1
1991.61	11154.1
1992.59	11134.7
1993.57	11116
1994.56	11103.3
1995.54	11096.8
1996.52	11097.3
1997.5	11090.7
1998.49	11082.7
1999.47	11072.5
2000.45	11061.2
2001.43	11049
2002.41	11036.2
2003.39	11022.7
2004.38	11009.4
2005.36	10997
2006.34	10985.9
2007.32	10975.5
2008.3	10965.7
2009.28	10955.8
2010.26	10945.8
2011.24	10935.1
2012.22	10923.8
2013.2	10912.3
2014.18	10901.3
2015.16	10890.3
2016.14	10886.9
2017.12	10886.1
2018.1	10884.3
2019.07	10880
2020.05	10872.9
2021.03	10864.1
2022.01	10854.1
2022.99	10842.4
2023.97	10829.1
2024.95	10814.3
2025.92	10798.7
2026.9	10783.1
2027.88	10770.7
2028.86	10759.6
2029.83	10752.3
2030.81	10757.4
2031.79	10759.6
2032.76	10758.4
2033.74	10739
2034.72	10721.2
2035.69	10706.3
2036.67	10697
2037.65	10688
2038.62	10680
2039.6	10673
2040.57	10667.2
2041.55	10662.1
2042.52	10657.6
2043.5	10655.9
2044.47	10648.8
2045.45	10625.6
2046.42	10608.2
2047.4	10592.8
2048.37	10577.3
2049.35	10560.9
2050.32	10547.1
2051.29	10533.2
2052.27	10519.1
2053.24	10504.9
2054.21	10487.9
2055.19	10466.5
2056.16	10441.8
2057.13	10432.4
2058.11	10424.3
2059.08	10427.9
2060.05	10436.4
2061.02	10439.9
2062	10451.6
2062.97	10448.2
2063.94	10429.1
2064.91	10412.8
2065.89	10400.2
2066.86	10391.8
2067.83	10386.9
2068.8	10378.2
2069.77	10361.3
2070.74	10335.4
2071.71	10317.8
2072.68	10299.3
2073.65	10277.4
2074.62	10268.7
2075.59	10273.2
2076.56	10283.2
2077.53	10288
2078.5	10287
2079.47	10280.2
2080.44	10253.6
2081.41	10237.5
2082.38	10222.1
2083.35	10201.7
2084.32	10188.5
2085.29	10179
2086.26	10172.6
2087.23	10169.1
2088.19	10167.4
2089.16	10168.6
2090.13	10166.6
2091.1	10160.5
2092.07	10152.4
2093.03	10143.1
2094	10132.2
2094.97	10119.8
2095.94	10105.9
2096.9	10090.3
2097.87	10073.8
2098.84	10046.9
2099.8	10021.1
2100.77	10018.7
2101.74	10016.5
2102.7	10055.6
2103.67	10033.5
2104.63	10002.4
2105.6	9969.53
2106.56	9943.4
2107.53	9912.68
2108.49	9891.52
2109.46	9882.99
2110.42	9886.22
2111.39	9880.87
2112.35	9879.62
2113.32	9873.58
2114.28	9873.85
2115.25	9879.69
2116.21	9908.58
2117.17	9882.67
2118.14	9853.79
2119.1	9841.89
2120.07	9834.91
2121.03	9829.05
2121.99	9819.93
2122.96	9813.76
2123.92	9807.6
2124.88	9801.54
2125.84	9795.28
2126.81	9788.4
2127.77	9780.53
2128.73	9767.73
2129.69	9760.79
2130.65	9754.28
2131.62	9748.04
2132.58	9742.63
2133.54	9737.2
2134.5	9735
2135.46	9722.75
2136.42	9697.97
2137.38	9671.26
2138.34	9644.49
2139.3	9622.29
2140.26	9619.29
2141.22	9621.34
2142.18	9631.63
2143.14	9630.9
2144.1	9619.07
2145.06	9594.56
2146.02	9558.86
2146.98	9552.43
2147.94	9545.1
2148.9	9547.82
2149.86	9549.68
2150.82	9541.47
2151.78	9532.97
2152.74	9523.85
2153.69	9513.57
2154.65	9502.31
2155.61	9490.46
2156.57	9479
2157.53	9467.21
2158.48	9461.17
2159.44	9456.78
2160.4	9445.8
2161.36	9428.39
2162.31	9407.73
2163.27	9389.25
2164.23	9376.85
2165.18	9371.68
2166.14	9360.23
2167.1	9347.8
2168.05	9335.02
2169.01	9321.36
2169.96	9306.64
2170.92	9291.01
2171.88	9274.34
2172.83	9256.47
2173.79	9237.53
2174.74	9218.24
2175.7	9199.83
2176.65	9183.21
2177.6	9172.73
2178.56	9162.63
2179.51	9154.29
2180.47	9147.58
2181.42	9143.21
2182.38	9140.22
2183.33	9136.87
2184.28	9129.64
2185.24	9118.37
2186.19	9106.84
2187.14	9095.46
2188.1	9083.94
2189.05	9071.9
2190	9059.5
2190.96	9049.25
2191.91	9042.13
2192.86	9038.32
2193.81	9034.67
2194.76	9023.84
2195.72	9010.81
2196.67	8994.53
2197.62	8975.62
2198.57	8957.96
2199.52	8950.45
2200.47	8944.81
2201.43	8941.31
2202.38	8939.97
2203.33	8940.18
2204.28	8937.73
2205.23	8929.99
2206.18	8917.51
2207.13	8896.65
2208.08	8880.21
2209.03	8870.37
2209.98	8861.9
2210.93	8854.88
2211.88	8849.17
2212.83	8845.22
2213.78	8842.32
2214.73	8835.23
2215.67	8822.57
2216.62	8805.58
2217.57	8802.34
2218.52	8803.24
2219.47	8806.98
2220.42	8806.56
2221.37	8808.67
2222.31	8799.02
2223.26	8788.25
2224.21	8763.45
2225.16	8733.89
2226.1	8722.86
2227.05	8713.23
2228	8713.83
2228.94	8714.24
2229.89	8714.57
2230.84	8714.25
2231.78	8713.16
2232.73	8711.39
2233.68	8709.33
2234.62	8707.83
2235.57	8705.42
2236.51	8701.34
2237.46	8695.45
2238.41	8687.74
2239.35	8678.05
2240.3	8666.73
2241.24	8653.45
2242.19	8639.03
2243.13	8625.42
2244.07	8613.15
2245.02	8617.45
2245.96	8627.22
2246.91	8636.9
2247.85	8630.45
2248.8	8610.74
2249.74	8596.86
2250.68	8579.28
2251.63	8570.83
2252.57	8576.61
2253.51	8589.97
2254.46	8600.22
2255.4	8607.22
2256.34	8608.55
2257.28	8605.26
2258.23	8596.47
2259.17	8587.67
2260.11	8579.36
2261.05	8585.47
2262	8579.8
2262.94	8566.24
2263.88	8550.62
2264.82	8524.64
2265.76	8520.63
2266.7	8522.99
2267.64	8527.18
2268.58	8531.27
2269.53	8532.98
2270.47	8531.52
2271.41	8516.88
2272.35	8505.5
2273.29	8497.49
2274.23	8490.29
2275.17	8483.97
2276.11	8485.57
2277.05	8497.32
2277.99	8502.96
2278.93	8506.55
2279.86	8509.29
2280.8	8490.22
2281.74	8478.86
2282.68	8473.46
2283.62	8472.03
2284.56	8468.28
2285.5	8462.66
2286.44	8454.58
2287.37	8444.3
2288.31	8432.92
2289.25	8433.56
2290.19	8444.24
2291.12	8451.41
2292.06	8457.53
2293	8452.29
2293.94	8439.03
2294.87	8386.24
2295.81	8370.07
2296.75	8439.14
2297.68	8458.37
2298.62	8455.4
2299.55	8448.88
2300.49	8433.68
2301.43	8420
2302.36	8407.79
2303.3	8397.63
2304.23	8388.53
2305.17	8379.3
2306.1	8368.93
2307.04	8354.22
2307.98	8337.17
2308.91	8319.33
2309.84	8300.86
2310.78	8282.91
2311.71	8271.49
2312.65	8269.25
2313.58	8267.27
2314.52	8260.31
2315.45	8252.49
2316.38	8246.23
2317.32	8240.64
2317.72	8238.59
2318.66	8237.87
2319.6	8238.32
2320.54	8238.82
2321.48	8239.51
2322.41	8235.56
2323.35	8221.53
2324.29	8209.57
2325.23	8198.1
2326.16	8188.03
2327.1	8179.4
2328.04	8172.42
2328.97	8166.92
2329.91	8162.73
2330.85	8160.3
2331.78	8159.33
2332.72	8159.62
2333.66	8160.34
2334.59	8158.25
2335.53	8143.16
2336.46	8131.77
2337.4	8110.24
2338.33	8090.78
2339.27	8073.16
2340.2	8067.1
2341.14	8064.47
2342.07	8080.11
2343.01	8088.26
2343.94	8088.8
2344.88	8083.2
2345.81	8079.31
2346.75	8074.23
2347.68	8067.94
2348.61	8060.43
2349.55	8051.7
2350.48	8041.67
2351.41	8029.99
2352.35	8015.47
2353.28	7999.31
2354.21	7983.43
2355.15	7972.9
2356.08	7960.44
2357.01	7960.26
2357.94	7966.56
2358.88	7979.29
2359.81	7985.16
2360.74	7984.97
2361.67	7981.69
2362.6	7977.3
2363.54	7959.09
2364.47	7941.52
2365.4	7923.15
2366.33	7911.39
2367.26	7902.01
2368.19	7896.69
2369.12	7895.51
2370.05	7898.04
2370.98	7903.07
2371.91	7912.67
2372.84	7906.07
2373.77	7899.88
2374.7	7888.16
2375.63	7878.23
2376.56	7865.98
2377.49	7858.31
2378.42	7858.2
2379.35	7849.5
2380.28	7842.05
2381.21	7834.36
2382.14	7826.65
2383.07	7820.95
2384	7819.1
2384.92	7824.21
2385.85	7827.34
2386.78	7824.72
2387.71	7817.96
2388.64	7809.48
2389.56	7795.69
2390.49	7785.96
2391.42	7773.36
2392.35	7761.35
2393.27	7748.68
2394.2	7736.53
2395.13	7726.38
2396.05	7721.86
2396.98	7733.25
2397.91	7760.74
2398.83	7788.75
2399.76	7794.95
2400.69	7727.97
2401.61	7713.92
2402.54	7698.52
2403.46	7684.56
2404.39	7672.65
2405.31	7662.65
2406.24	7658.59
2407.17	7649.92
2408.09	7663.79
2409.01	7688.16
2409.94	7692.36
2410.86	7690.22
2411.79	7672.4
2412.71	7637.36
2413.64	7635.2
2414.56	7629.42
2415.49	7620.86
2416.41	7611.53
2417.33	7602.02
2418.26	7593.46
2419.18	7587.32
2420.1	7582.26
2421.03	7578.22
2421.95	7575.29
2422.87	7573.59
2423.79	7572.99
2424.72	7572.16
2425.64	7569.15
2426.56	7563.3
2427.48	7550.67
2428.41	7531.35
2429.33	7518.01
2430.25	7505.84
2431.17	7495.12
2432.09	7486.09
2433.01	7491.24
2433.93	7503.05
2434.86	7509.23
2435.78	7505.68
2436.7	7494.21
2437.62	7481.82
2438.54	7463.88
2439.46	7441.91
2440.38	7421.64
2441.3	7400.12
2442.22	7386.88
2443.14	7374.46
2444.06	7369.94
2444.98	7381.18
2445.9	7399.84
2446.82	7405.19
2447.73	7414.77
2448.65	7346.56
2449.57	7344.16
2450.49	7328.96
2451.41	7317.81
2452.33	7304.66
2453.25	7296.3
2454.17	7296.5
2455.08	7307.13
2456	7316.5
2456.92	7331.88
2457.84	7303.44
2458.75	7292.11
2459.67	7279.15
2460.59	7264.17
2461.51	7244.75
2462.42	7227.86
2463.34	7211.4
2464.26	7206.73
2465.17	7209.84
2466.09	7219.17
2467	7226.25
2467.92	7230.78
2468.84	7234.9
2469.75	7221.93
2470.67	7201.92
2471.58	7179.91
2472.5	7161.72
2473.42	7147.67
2474.33	7137.11
2475.25	7129.54
2476.16	7125.81
2477.08	7124.9
2477.99	7127.04
2478.9	7128.24
2479.82	7119.59
2480.73	7113.33
2481.65	7110.66
2482.56	7108.29
2483.47	7104.68
2484.39	7100.39
2485.3	7096.09
2486.22	7091.95
2487.13	7088.28
2488.04	7085.1
2488.96	7082.61
2489.87	7081.04
2490.78	7080.67
2491.69	7081.31
2492.61	7082.48
2493.52	7083.96
2494.43	7084.27
2495.34	7080.31
2496.25	7072.53
2497.17	7059.86
2498.08	7043.86
2498.99	7024.28
2499.9	7018.46
2500.81	7022.35
2501.72	7035.14
2502.63	7041.6
2503.55	7048.08
2504.46	7017.53
2505.37	7006.93
2506.28	6997.18
2507.19	6988.51
2508.1	6980.88
2509.01	6974.63
2509.92	6969.53
2510.83	6965.93
2511.74	6964.17
2512.65	6964.58
2513.56	6966.74
2514.47	6971.13
2515.37	6968.36
2516.28	6956.17
2517.19	6937.09
2518.1	6923.82
2519.01	6916.23
2519.92	6912.71
2520.83	6912.47
2521.73	6932.29
2522.64	6942.18
2523.55	6946.07
2524.46	6921.97
2525.37	6894.92
2526.27	6889.23
2527.18	6895.95
2528.09	6885.52
2529	6876.32
2529.9	6868.04
2530.81	6860.48
2531.72	6853.27
2532.62	6846.46
2533.53	6839.93
2534.44	6833.54
2535.34	6827.23
2536.25	6821.08
2537.15	6814.87
2538.06	6808.81
2538.96	6804.48
2539.87	6812.84
2540.78	6821.86
2541.68	6828.46
2542.59	6832.75
2543.49	6833.18
2544.4	6830.22
2545.3	6823.52
2546.21	6810.94
2547.11	6792.98
2548.01	6761.99
2548.92	6728.99
2549.82	6711.72
2550.73	6709.93
2551.63	6708.9
2552.53	6709.2
2553.44	6711.98
2554.34	6717.76
2555.24	6722.26
2556.15	6721.17
2557.05	6714.26
2557.95	6705.59
2558.86	6695.52
2559.76	6689.18
2560.66	6682.74
2561.56	6676.12
2562.46	6668.55
2563.37	6661.15
2564.27	6649.73
2565.17	6637.75
2566.07	6626.02
2566.97	6614.54
2567.88	6603.79
2568.78	6595.53
2569.68	6589.44
2570.58	6584.66
2571.48	6580.52
2572.38	6575.09
2573.28	6561.71
2574.18	6550.19
2575.08	6540.72
2575.98	6537.27
2576.88	6535.2
2577.78	6532.93
2578.68	6528.47
2579.58	6520.85
2580.48	6510.24
2581.38	6496.86
2582.28	6480.92
2583.18	6463.53
2584.08	6453.23
2584.98	6451.47
2585.88	6455.81
2586.77	6457.76
2587.67	6456.12
2588.57	6449.95
2589.47	6440.05
2590.37	6427.76
2591.27	6416.79
2592.16	6396.93
2593.06	6391.29
2593.96	6389.02
2594.86	6400.5
2595.75	6411.94
2596.65	6419.32
2597.55	6419.62
2598.45	6410.12
2599.34	6398.03
2600.24	6384.09
2601.13	6364.4
2602.03	6351.84
2602.93	6345.86
2603.82	6342.83
2604.72	6339.97
2605.62	6335.93
2606.51	6330.1
2607.41	6324
2608.3	6317.37
2609.2	6310.56
2610.09	6302.81
2610.99	6294.79
2611.88	6287.3
2612.78	6280.92
2613.67	6278.33
2614.57	6276
2615.46	6275.2
2616.36	6267.97
2617.25	6258.56
2618.14	6253.09
2619.04	6247.26
2619.93	6242.53
2620.83	6235.39
2621.72	6227.68
2622.61	6219.86
2623.5	6212.53
2624.4	6206.29
2625.29	6200.73
2626.18	6196.92
2627.08	6194.5
2627.97	6193.67
2628.86	6191.27
2629.75	6185.16
2630.65	6174.4
2631.54	6164.93
2632.43	6155.09
2633.32	6175.13
2634.21	6171.03
2635.11	6152.56
2636	6127.73
2636.89	6104.56
2637.78	6136.9
2638.67	6142.21
2639.56	6133.94
2640.45	6116.63
2641.34	6096.44
2642.23	6080.09
2643.12	6063.63
2644.01	6047.61
2644.9	6032.8
2645.79	6019.07
2646.68	6006.31
2647.57	5994.85
2648.46	5984.17
2649.35	5974.5
2650.24	5968.32
2651.13	5969.01
2652.02	5970.57
2652.91	5968.18
2653.8	5966.98
2654.69	5964.65
2655.58	5961.56
2656.46	5958.1
2657.35	5953.89
2658.24	5949.51
2659.13	5944.25
2660.02	5938.34
2660.9	5929.65
2661.79	5917.77
2662.68	5905.89
2663.57	5901.17
2664.45	5896.71
2665.34	5890.22
2666.23	5881.73
2667.11	5872.92
2668	5867
2668.89	5863.95
2669.77	5863.28
2670.66	5864.64
2671.55	5869.25
2672.43	5875.92
2673.32	5885.12
2674.21	5894.34
2675.09	5889.25
2675.98	5881.86
2676.86	5868.41
2677.75	5854.12
2678.63	5837.92
2679.52	5819.98
2680.4	5806.72
2681.29	5800.07
2682.17	5798.82
2683.06	5793.37
2683.94	5786.53
2684.82	5777.36
2685.71	5766.55
2686.59	5752.82
2687.48	5739.36
2688.36	5726.13
2689.24	5714.49
2690.13	5705.93
2691.01	5700.31
2691.89	5696.02
2692.78	5695.99
2693.66	5701.34
2694.54	5703.89
2695.43	5702.36
2696.31	5680.99
2697.19	5652.53
2698.07	5628.73
2698.96	5626.17
2699.84	5626.75
2700.72	5630.3
2701.6	5640.73
2702.48	5648.89
2703.36	5633.68
2704.25	5615.31
2705.13	5607.72
2706.01	5605.45
2706.89	5606.3
2707.77	5609.5
2708.65	5612.41
2709.53	5607.13
2710.41	5598.28
2711.29	5583.14
2712.17	5565.95
2713.05	5555.73
2713.93	5545.18
2714.81	5546.58
2715.69	5557.36
2716.57	5562.06
2717.45	5561.25
2718.33	5554.52
2719.21	5542.77
2720.09	5529.83
2720.97	5513.08
2721.85	5493.62
2722.73	5473.23
2723.61	5469.41
2724.48	5471.3
2725.36	5474.07
2726.24	5477.89
2727.12	5481.36
2728	5482.48
2728.88	5483.14
2729.75	5477.75
2730.63	5469.9
2731.51	5461.78
2732.39	5460.86
2733.26	5457.28
2734.14	5460.25
2735.02	5459.7
2735.89	5452.31
2736.77	5444.48
2737.65	5441.86
2738.52	5442.22
2739.4	5441.91
2740.28	5441.15
2741.15	5439.71
2742.03	5438.33
2742.9	5435.71
2743.78	5425.54
2744.65	5411.66
2745.53	5396.87
2746.41	5379.58
2747.28	5366.23
2748.16	5361.9
2749.03	5359.49
2749.91	5358.74
2750.78	5359.42
2751.66	5357.6
2752.53	5353.01
2753.4	5348.27
2754.28	5341.39
2755.15	5334.03
2756.02	5327.2
2756.9	5321.07
2757.77	5322.38
2758.65	5323.53
2759.52	5324.37
2760.39	5324.51
2761.27	5323.69
2762.14	5322.01
2763.01	5316.38
2763.88	5308.52
2764.76	5299.23
2765.63	5290.3
2766.5	5282.07
2767.37	5275.16
2768.25	5268.15
2769.12	5261.37
2769.99	5255.12
2770.86	5249.52
2771.73	5244.77
2772.61	5241.1
2773.48	5238.11
2774.35	5236.17
2775.22	5234.43
2776.09	5231.04
2776.96	5226.46
2777.83	5220.15
2778.7	5214.21
2779.57	5207.99
2780.44	5201.16
2781.31	5193.04
2782.18	5185.83
2783.05	5179.67
2783.92	5174.82
2784.79	5171.48
2785.66	5169.69
2786.53	5164.64
2787.4	5160.36
2788.27	5157.04
2789.14	5153.81
2790.01	5153.29
2790.88	5158.15
2791.75	5160.62
2792.62	5163.58
2793.48	5165.72
2794.35	5165.21
2795.22	5151.79
2796.09	5133.59
2796.96	5112.54
2797.82	5097.23
2798.69	5086.69
2799.56	5083.14
2800.43	5090.75
2801.29	5093.99
2802.16	5095.88
2803.03	5090.76
2803.9	5082.64
2804.76	5070.82
2805.63	5058.16
2806.5	5045.81
2807.36	5034.69
2808.23	5024.44
2809.09	5015.43
2809.96	5007.19
2810.83	4999.16
2811.69	4991.77
2812.56	4984.84
2813.42	4978.53
2814.29	4972.16
2815.15	4965.69
2816.02	4960.85
2816.88	4957.99
2817.75	4956.82
2818.61	4959.68
2819.48	4965.83
2820.34	4971.87
2821.21	4973.82
2822.07	4974.31
2822.94	4971.34
2823.8	4965.54
2824.66	4957.94
2825.53	4945.83
2826.39	4936.93
2827.26	4935.84
2828.12	4933.38
2828.98	4931.04
2829.85	4926.69
2830.71	4921.8
2831.57	4915.79
2832.43	4908.65
2833.3	4900.67
2834.16	4891.94
2835.02	4882.94
2835.88	4876.44
2836.75	4872.55
2837.61	4870.96
2838.47	4868.53
2839.33	4866.14
2840.19	4862.82
2841.06	4859.14
2841.92	4855.25
2842.78	4851.15
2843.64	4846.79
2844.5	4842.02
2845.36	4837.15
2846.22	4834.05
2847.08	4832.56
2847.94	4832.92
2848.81	4831.93
2849.67	4830.6
2850.53	4827.95
2851.39	4824.36
2852.25	4819.5
2853.11	4813.6
2853.97	4806.67
2854.82	4798.82
2855.68	4790.33
2856.54	4783.77
2857.4	4777.02
2858.26	4771.8
2859.12	4769.16
2859.98	4767.31
2860.84	4768.05
2861.7	4768.9
2862.56	4770.34
2863.41	4772.68
2864.27	4773.22
2865.13	4774.88
2865.99	4774.39
2866.85	4763.68
2867.7	4747.74
2868.56	4738.29
2869.42	4735.47
2870.28	4737.86
2871.13	4742.53
2871.99	4746.45
2872.85	4749.53
2873.7	4748.02
2874.56	4736.43
2875.42	4719.74
2876.27	4705.25
2877.13	4691.45
2877.99	4684.48
2878.84	4680.61
2879.7	4680.28
2880.56	4678.9
2881.41	4676.31
2882.27	4672.79
2883.12	4667.78
2883.98	4658.62
2884.83	4647.08
2885.69	4630.03
2886.54	4620.53
2887.4	4617.03
2888.25	4615.8
2889.11	4617.56
2889.96	4622.99
2890.82	4631.73
2891.67	4632.12
2892.52	4632.17
2893.38	4621.42
2894.23	4609.23
2895.09	4601.36
2895.94	4590.18
2896.79	4574.12
2897.65	4566.46
2898.5	4562.31
2899.35	4570.08
2900.21	4573.06
2901.06	4561.7
2901.91	4547.83
2902.76	4531.36
2903.62	4536.14
2904.47	4549.83
2905.32	4565.26
2906.17	4552.58
2907.03	4545.82
2907.88	4540.29
2908.73	4533.39
2909.58	4525.13
2910.43	4518.71
2911.28	4509.9
2912.14	4508.69
2912.99	4504.65
2913.84	4506.23
2914.69	4504.88
2915.54	4499.95
2916.39	4491.79
2917.24	4481.86
2918.09	4471.32
2918.94	4461.46
2919.79	4452.48
2920.64	4444.87
2921.49	4438.74
2922.34	4433.74
2923.19	4430.28
2924.04	4427.6
2924.89	4423.87
2925.74	4414.63
2926.59	4379.64
2927.44	4423.34
2928.29	4413.37
2929.14	4402.99
2929.98	4393.55
2930.83	4385.68
2931.68	4378.09
2932.53	4376.64
2933.38	4377.33
2934.23	4376.96
2935.07	4376.64
2935.92	4370.96
2936.77	4363.84
2937.62	4357.49
2938.47	4350.83
2939.31	4343.8
2940.16	4337.65
2941.01	4332.45
2941.85	4330.12
2942.7	4328.55
2943.55	4327.3
2944.39	4325.54
2945.24	4324.18
2946.09	4323.12
2946.93	4322.86
2947.78	4322.79
2948.63	4331.91
2949.47	4322.96
2950.32	4312.59
2951.16	4300.92
2952.01	4287.74
2952.85	4274.16
2953.7	4262.47
2954.55	4257.9
2955.39	4255.34
2956.24	4252.52
2957.08	4249.63
2957.92	4247.74
2958.77	4245.92
2959.61	4244.97
2960.46	4244.03
2961.3	4242.85
2962.15	4241.13
2962.99	4234.89
2963.83	4223.31
2964.68	4212.21
2965.52	4203.35
2966.37	4193.23
2967.21	4192.48
2968.05	4196.32
2968.9	4198.18
2969.74	4199.03
2970.58	4198.92
2971.42	4196.85
2972.27	4194.44
2973.11	4191.41
2973.95	4187.92
2974.79	4183.81
2975.64	4179.77
2976.48	4175.16
2977.32	4169.63
2978.16	4163.74
2979	4157.35
2979.85	4151.28
2980.69	4149.22
2981.53	4145.84
2982.37	4142.57
2983.21	4139.67
2984.05	4137.09
2984.89	4133.3
2985.73	4129.28
2986.57	4123.02
2987.41	4120.95
2988.25	4134.7
2989.1	4142.5
2989.94	4141.9
2990.77	4121.8
2991.62	4063.9
2992.45	4085.08
2993.29	4092.16
2994.13	4109.38
2994.97	4130.71
2995.81	4113.33
2996.65	4103.31
2997.49	4093.22
2998.33	4082.26
2999.17	4081.62
