200.833	17425.1
202.102	17511.5
203.371	17480.5
204.639	17476.4
205.907	17485.6
207.175	17498.4
208.442	17515.3
209.71	17535.1
210.977	17552.1
212.244	17569
213.511	17592.5
214.777	17622.4
216.042	17650.1
217.309	17676.6
218.575	17700.1
219.84	17722.3
221.106	17743.6
222.371	17766
223.635	17789.2
224.9	17820.5
226.165	17861.7
227.429	17905
228.694	17948
229.956	17988.5
231.22	18026.9
232.484	18062.5
233.747	18096
235.011	18125.8
236.272	18151.6
237.535	18173.3
238.798	18188
240.06	18199.1
241.321	18221.4
242.583	18255.1
243.845	18279
245.105	18292.4
246.367	18293.8
247.628	18294.9
248.888	18339.5
250.149	18377.6
251.409	18401.2
252.67	18410.6
253.928	18405.2
255.189	18407.3
256.447	18405.9
257.707	18412.3
258.966	18426.4
260.224	18448.8
261.483	18477.3
262.742	18505.8
263.999	18522.6
265.257	18530.8
266.514	18540.6
267.772	18556.5
269.028	18566.1
270.286	18596.4
271.543	18625.5
272.799	18655.6
274.056	18681.7
275.311	18703.7
276.568	18725
277.823	18738.2
279.079	18746.1
280.333	18752.4
281.589	18760.6
282.843	18775.1
284.099	18792.1
285.352	18811.5
286.607	18835.2
287.86	18862
289.114	18892.7
290.368	18924.6
291.621	18952.1
292.875	18976.8
294.127	18995.9
295.38	19011.4
296.632	19024.3
297.884	19034
299.137	19044.9
300.388	19072.6
301.641	19055.1
302.891	19004.3
304.142	19011.2
305.394	19031.2
306.644	19077.3
307.894	19120.1
309.146	19192.1
310.395	19182.2
311.645	19179.8
312.895	19174.7
314.144	19165.5
315.393	19159.5
316.642	19163
317.892	19170.5
319.14	19183.4
320.388	19199.9
321.637	19222.1
322.885	19246.7
324.132	19272
325.38	19296.8
326.628	19320.8
327.875	19341.7
329.122	19362.9
330.368	19383.3
331.614	19402.7
332.862	19421.5
334.108	19440.2
335.353	19460.7
336.599	19473.6
337.844	19469.8
339.089	19465.2
340.335	19453.1
341.58	19468
342.824	19486.5
344.068	19505.4
345.312	19532.1
346.556	19562.5
347.8	19582.8
349.043	19591.4
350.286	19587.9
351.53	19587.7
352.774	19586.1
354.016	19593.2
355.259	19597.8
356.501	19602.6
357.743	19606.8
358.985	19612.8
360.227	19612.4
361.468	19597.4
362.709	19615.7
363.95	19665.2
365.191	19688.4
366.432	19691.2
367.672	19678.2
368.912	19641.1
370.152	19646.4
371.392	19655.5
372.632	19656.4
373.871	19660.6
375.11	19668.1
376.348	19679.2
377.587	19694.3
378.825	19713.4
380.064	19741.7
381.302	19770.9
382.54	19784.1
383.778	19787.3
385.016	19784.1
386.253	19777.5
387.489	19779.3
388.726	19790.6
389.963	19810.7
391.199	19840.5
392.436	19878.2
393.672	19913.5
394.907	19943.1
396.142	19959.8
397.378	19965.3
398.614	19956.2
399.849	19945.5
401.082	19948.5
402.317	19940.4
403.552	19922.8
404.786	19947
406.019	19980.5
407.253	20026.4
408.487	20084.7
409.721	20128.6
410.953	20141.1
412.186	20100
413.419	20078.2
414.651	20062.7
415.883	20060.5
417.116	20070.3
418.347	20094
419.579	20113.5
420.811	20129
422.041	20117.6
423.272	20109.5
424.504	20107.3
425.733	20099.6
426.964	20104.7
428.194	20112.2
429.424	20122.7
430.654	20135.2
431.883	20147.6
433.113	20159.2
434.341	20165.2
435.571	20172.1
436.799	20179
438.028	20186.3
439.257	20194.6
440.484	20204.3
441.713	20214.7
442.94	20225.8
444.168	20237.7
445.394	20250
446.622	20262.8
447.848	20274.6
449.076	20285.8
450.301	20292.5
451.528	20291.1
452.754	20286.7
453.979	20280.7
455.205	20273.4
456.43	20262.2
457.656	20269.3
458.88	20287.4
460.106	20292.4
461.33	20295.1
462.554	20294.1
463.779	20289.9
465.002	20256.6
466.225	20225.1
467.45	20231.4
468.672	20254.3
469.895	20278.4
471.119	20287.9
472.341	20293.5
473.563	20295.2
474.786	20293.1
476.008	20285.9
477.229	20274.5
478.452	20258.8
479.673	20242.7
480.894	20228.6
482.115	20216.9
483.337	20211.1
484.557	20209.8
485.777	20211.6
486.997	20214
488.218	20215.6
489.438	20217.6
490.657	20215.2
491.876	20202.8
493.096	20193.8
494.315	20185.1
495.533	20174.2
496.752	20164.9
497.97	20162.5
499.188	20167.8
500.407	20190.3
501.625	20216.2
502.842	20241.3
504.059	20244.1
505.276	20236
506.493	20236.9
507.71	20240.7
508.926	20248.2
510.142	20260.6
511.358	20275
512.575	20289.1
513.791	20302.9
515.006	20316.8
516.222	20322.6
517.437	20330.1
518.651	20330.1
519.866	20330.9
521.081	20332.4
522.295	20344.1
523.509	20373.4
524.723	20404.3
525.937	20428.1
527.15	20444.1
528.363	20454.8
529.576	20460.9
530.789	20459.3
532.002	20451.8
533.215	20435.9
534.426	20416.6
535.638	20407.9
536.85	20396.8
538.061	20457.7
539.273	20449.9
540.484	20439.5
541.695	20437.9
542.906	20451.1
544.117	20467.3
545.327	20480.7
546.537	20491.5
547.747	20497.8
548.957	20500.8
550.167	20500.3
551.377	20496.4
552.585	20488.8
553.794	20477.7
555.003	20462.4
556.212	20465.1
557.421	20471.8
558.628	20477.5
559.836	20484.5
561.044	20490.3
562.252	20494.5
563.458	20492.5
564.666	20490.5
565.873	20480.8
567.08	20463
568.286	20464.9
569.493	20476.2
570.699	20491.1
571.904	20500.9
573.111	20505.8
574.317	20504.3
575.521	20493.7
576.727	20479.3
577.932	20471.8
579.136	20455.8
580.341	20457.9
581.544	20469.6
582.749	20485.8
583.954	20502.3
585.156	20514.7
586.361	20523.7
587.563	20529
588.767	20530.8
589.97	20529.1
591.172	20523.9
592.375	20515.1
593.577	20502.5
594.78	20487.1
595.981	20489.3
597.183	20507.2
598.384	20528
599.586	20551.8
600.786	20578.6
601.988	20606.7
603.188	20579.1
604.389	20530.6
605.589	20471.6
606.79	20420.2
607.989	20435
609.188	20459.7
610.389	20507.7
611.587	20502.1
612.787	20489.5
613.986	20444.5
615.184	20402.8
616.383	20387.8
617.581	20378.2
618.78	20365.2
619.977	20355.7
621.174	20349.3
622.373	20336.5
623.57	20328.3
624.766	20307.6
625.964	20284.9
627.16	20261.3
628.356	20237.7
629.554	20215.4
630.749	20194.3
631.945	20185.2
633.14	20176.1
634.337	20167.9
635.532	20164.2
636.726	20146
637.921	20140.4
639.117	20145.6
640.311	20176.5
641.505	20199.4
642.699	20209
643.892	20207.8
645.087	20207.7
646.28	20190
647.473	20183.6
648.666	20182.6
649.859	20182.1
651.051	20180.4
652.245	20184.4
653.437	20179.4
654.629	20178.1
655.821	20173.2
657.012	20277.8
658.204	20204.2
659.395	20177.3
660.586	20161.1
661.777	20190.2
662.967	20210.4
664.158	20230
665.349	20245.6
666.539	20256.7
667.729	20263.4
668.919	20268.8
670.109	20272.1
671.298	20274.2
672.487	20275.5
673.676	20278.7
674.865	20279.5
676.053	20278.1
677.242	20274.8
678.43	20269.4
679.616	20262.5
680.804	20253.2
681.992	20246.1
683.179	20242.6
684.366	20246.4
685.554	20264.8
686.74	20261.2
687.927	20245.5
689.114	20233.8
690.3	20227.2
691.486	20222.2
692.671	20216.6
693.856	20211.3
695.042	20206.2
696.227	20200.3
697.413	20192.9
698.598	20183.4
699.781	20171.5
700.966	20157.5
702.15	20139.5
703.334	20119.7
704.518	20100.6
705.701	20084.8
706.885	20072.1
708.068	20065
709.252	20062.3
710.433	20062.5
711.616	20066.3
712.799	20074.2
713.98	20085
715.163	20059.7
716.345	20022.3
717.527	19962.8
718.707	19977.7
719.889	20015.6
721.071	20020.5
722.25	20012.2
723.432	20008.2
724.611	20008.1
725.792	20029.1
726.972	20044.9
728.151	20061.1
729.332	20081
730.512	20092.6
731.69	20077.7
732.87	20074.4
734.048	20072.2
735.227	20072.6
736.405	20075.6
737.584	20081.6
738.761	20089.7
739.94	20098.9
741.117	20108.5
742.295	20117.4
743.471	20124.5
744.649	20129.3
745.825	20132.4
747.003	20136
748.179	20138.8
749.356	20143.4
750.531	20149.9
751.708	20157.6
752.883	20161.5
754.059	20160.3
755.234	20155.7
756.409	20137.6
757.585	20111.6
758.759	20099.2
759.934	20097
761.108	20096.5
762.282	20116.3
763.456	20119.1
764.63	20132.5
765.803	20123.9
766.977	20094.1
768.15	20078.9
769.323	20047.8
770.496	20060.8
771.668	20079.5
772.841	20090.2
774.014	20082.6
775.185	20046.5
776.357	20003.6
777.528	19911.8
778.701	19863
779.872	19906.9
781.042	19905.8
782.213	19907.1
783.383	19911.8
784.555	19916.8
785.725	19917
786.895	19908.3
788.064	19902.8
789.234	19883.2
790.404	19865.9
791.573	19847.6
792.742	19829.1
793.911	19809.6
795.08	19788.4
796.248	19765.3
797.416	19755.3
798.584	19762.7
799.753	19775.3
800.921	19775.6
802.088	19776.7
803.256	19774.5
804.423	19752.5
805.59	19753.5
806.756	19763
807.923	19782.6
809.089	19789.1
810.256	19799.7
811.422	19794.3
812.587	19773.4
813.753	19752.3
814.918	19733
816.084	19713.8
817.249	19751.2
818.414	19814.8
819.578	19857.6
820.743	19877.3
821.907	19860.1
823.072	19833.2
824.236	19819
825.399	19807.1
826.562	19798
827.725	19797.9
828.889	19800.9
830.052	19809.2
831.215	19821.1
832.377	19835.9
833.54	19849.5
834.701	19835.6
835.863	19819.9
837.025	19778.1
838.187	19775.8
839.349	19773.1
840.51	19791.9
841.67	19809.3
842.831	19828.4
843.992	19840.5
845.153	19841.1
846.312	19834
847.473	19821.7
848.633	19808.3
849.793	19797.6
850.951	19783.9
852.111	19769.3
853.27	19753.7
854.428	19737.9
855.588	19722.3
856.747	19707.5
857.904	19693.9
859.063	19680.9
860.221	19669
861.378	19657.7
862.536	19646.6
863.694	19635.6
864.85	19623.4
866.008	19610.6
867.164	19595.8
868.321	19576.5
869.478	19552.4
870.633	19526.2
871.79	19498.4
872.945	19477.7
874.101	19459.1
875.256	19444.3
876.412	19434
877.566	19428.1
878.722	19426.7
879.876	19430.9
881.031	19439.5
882.185	19448.6
883.34	19402.9
884.493	19389.9
885.647	19376.6
886.8	19368.6
887.954	19374.8
889.107	19370.5
890.261	19363.1
891.413	19352.6
892.565	19336.4
893.718	19325.5
894.87	19317.8
896.023	19336.8
897.174	19330.3
898.326	19320.2
899.478	19315.8
900.629	19311
901.779	19312
902.931	19323.5
904.081	19335.4
905.231	19349.5
906.383	19363.9
907.532	19375.7
908.682	19380.1
909.831	19383.3
910.982	19384.2
912.131	19383.3
913.28	19380.7
914.429	19377.4
915.578	19373.9
916.727	19370.5
917.875	19367.1
919.023	19375.6
920.171	19392.7
921.32	19412.6
922.467	19427
923.614	19431.8
924.761	19427.8
925.908	19420
927.055	19408.1
928.203	19393.8
929.349	19376
930.496	19356.6
931.642	19341.1
932.787	19331.2
933.933	19326.6
935.079	19334.8
936.224	19363.1
937.369	19390
938.514	19387.5
939.659	19360.9
940.804	19340.1
941.948	19324.8
943.092	19307.8
944.236	19293.1
945.38	19280.7
946.524	19270.5
947.667	19262.3
948.811	19256.2
949.954	19252
951.097	19249.7
952.24	19249.5
953.383	19251.6
954.525	19258.3
955.667	19259.9
956.81	19227.6
957.952	19184.9
959.093	19148.8
960.235	19114.1
961.376	19070.7
962.516	19039.6
963.658	19035.2
964.798	19054.3
965.939	19065.6
967.08	19073.8
968.22	19088.9
969.359	19091
970.499	19082
971.639	19060.6
972.779	19027.9
973.918	19022.2
975.056	19022.2
976.195	19050.9
977.334	19070.3
978.473	19068.6
979.61	19065.7
980.749	19035.7
981.887	19027.2
983.024	19020.8
984.162	19022.3
985.3	19053.2
986.437	19052.3
987.573	19045.6
988.711	19034.1
989.848	19015.7
990.983	18998.1
992.12	18991.4
993.255	18989.9
994.392	18993.1
995.528	19010.2
996.662	19043.2
997.798	19045
998.933	19040
1000.07	19044
1001.2	19053.1
1002.34	19060.8
1003.47	19068
1004.61	19073.9
1005.74	19078.7
1006.87	19080.2
1008.01	19069.7
1009.14	19063
1010.27	19058.9
1011.41	19056.4
1012.54	19050.4
1013.67	19042.8
1014.81	19033.5
1015.94	19023.1
1017.07	19011.2
1018.2	18998.2
1019.33	18981.3
1020.47	18970.1
1021.6	18967.4
1022.73	18960.6
1023.86	18962.1
1024.99	18952.4
1026.12	18940.9
1027.25	18926.8
1028.38	18895.4
1029.51	18862.7
1030.64	18854.3
1031.77	18865.6
1032.9	18888.6
1034.03	18903.5
1035.16	18915.1
1036.29	18882.2
1037.42	18858.9
1038.55	18831.8
1039.67	18807.6
1040.8	18790
1041.93	18772.4
1043.06	18752.8
1044.19	18733.1
1045.31	18708.1
1046.44	18685.3
1047.57	18670.5
1048.69	18663.6
1049.82	18663.6
1050.95	18685.6
1052.08	18699.5
1053.2	18705.9
1054.33	18691.9
1055.45	18664.6
1056.58	18617.5
1057.7	18591.5
1058.83	18573
1059.95	18555.7
1061.08	18548.6
1062.2	18555.8
1063.33	18553.1
1064.45	18558.5
1065.58	18547.3
1066.7	18535.2
1067.83	18528.9
1068.95	18527.7
1070.07	18531.6
1071.2	18539.8
1072.32	18552.4
1073.44	18564.7
1074.56	18570.1
1075.69	18571.1
1076.81	18561.4
1077.93	18544.6
1079.05	18530.9
1080.17	18520.3
1081.3	18513.1
1082.42	18508.7
1083.54	18505
1084.66	18503.3
1085.78	18503.9
1086.9	18507.7
1088.02	18543
1089.14	18552.9
1090.26	18547.8
1091.38	18528.2
1092.5	18507
1093.62	18440.9
1094.74	18511.9
1095.86	18607.1
1096.98	18504.8
1098.1	18470.2
1099.22	18456.1
1100.34	18464.9
1101.45	18472.5
1102.57	18494.9
1103.69	18505.5
1104.81	18507.8
1105.93	18495.4
1107.04	18440.3
1108.16	18419.8
1109.28	18443.4
1110.4	18439.4
1111.51	18431.7
1112.63	18423.8
1113.75	18415.8
1114.86	18406.7
1115.98	18398.4
1117.09	18392.9
1118.21	18390.5
1119.32	18390
1120.44	18380.8
1121.55	18368.7
1122.67	18345.4
1123.78	18308
1124.9	18272.5
1126.01	18240.1
1127.13	18220.5
1128.24	18204.1
1129.35	18189.9
1130.47	18185.1
1131.58	18183.2
1132.7	18185
1133.81	18179.3
1134.92	18156.2
1136.03	18120.5
1137.15	18083.8
1138.26	18048.8
1139.37	18014
1140.48	17988.5
1141.59	17968
1142.71	17961.7
1143.82	17976.7
1144.93	17967.1
1146.04	17960.6
1147.15	17937.1
1148.26	17918.5
1149.37	17902.2
1150.48	17890.4
1151.59	17884.3
1152.7	17883
1153.81	17886.6
1154.92	17898.4
1156.03	17903.3
1157.14	17906.4
1158.25	17885
1159.36	17865.8
1160.47	17852.1
1161.58	17841
1162.68	17827
1163.79	17815.8
1164.9	17805.3
1166.01	17807.8
1167.12	17830
1168.22	17842.1
1169.33	17849.9
1170.44	17851.7
1171.55	17852.4
1172.65	17845.9
1173.76	17831.7
1174.87	17818.6
1175.97	17809
1177.08	17803.2
1178.18	17805.1
1179.29	17808.7
1180.4	17816.4
1181.5	17828.1
1182.61	17842.8
1183.71	17859.3
1184.82	17872.6
1185.92	17881
1187.02	17869.5
1188.13	17853.5
1189.23	17833
1190.34	17814
1191.44	17799.4
1192.54	17809.2
1193.65	17815.2
1194.75	17824.1
1195.85	17834.9
1196.96	17849.1
1198.06	17861.9
1199.16	17868.4
1200.26	17871.9
1201.37	17871.3
1202.47	17868.8
1203.57	17865.3
1204.67	17859.4
1205.77	17852
1206.87	17842.8
1207.97	17832
1209.08	17819.6
1210.18	17806
1211.28	17792.3
1212.38	17779.4
1213.48	17772.2
1214.58	17764.9
1215.68	17750.8
1216.78	17717.1
1217.88	17725.8
1218.98	17739.1
1220.07	17759.3
1221.17	17756.7
1222.27	17744.4
1223.37	17729
1224.47	17715.5
1225.57	17703.1
1226.66	17690
1227.76	17678.7
1228.86	17667.6
1229.96	17657.4
1231.06	17647.7
1232.15	17637.9
1233.25	17627.2
1234.35	17611.8
1235.44	17595.5
1236.54	17581.5
1237.63	17566.8
1238.73	17557.9
1239.83	17550.3
1240.92	17545.2
1242.02	17539.5
1243.11	17533
1244.21	17525.6
1245.3	17513.2
1246.4	17498.5
1247.49	17482.5
1248.59	17465.2
1249.68	17447.2
1250.78	17430.7
1251.87	17450.8
1252.96	17465.2
1254.06	17469.8
1255.15	17456.4
1256.24	17433.1
1257.34	17411.1
1258.43	17396.2
1259.52	17393.1
1260.62	17398
1261.71	17406
1262.8	17406.2
1263.89	17399.3
1264.98	17384.1
1266.08	17372
1267.17	17361.6
1268.26	17405.8
1269.35	17406.1
1270.44	17401.2
1271.53	17402.8
1272.62	17393.9
1273.71	17411.7
1274.8	17421.1
1275.89	17433.1
1276.98	17447.8
1278.07	17438
1279.16	17427.3
1280.25	17403.9
1281.34	17390.3
1282.43	17388.1
1283.52	17397.4
1284.61	17417.8
1285.69	17419.8
1286.78	17423.6
1287.87	17429.9
1288.96	17421.6
1290.05	17410.6
1291.13	17407.7
1292.22	17411.7
1293.31	17424.8
1294.4	17431.7
1295.48	17430.8
1296.57	17422.3
1297.66	17391.4
1298.74	17398.1
1299.83	17406.1
1300.92	17409.6
1302	17412
1303.09	17413.4
1304.17	17411
1305.26	17407.3
1306.34	17400.6
1307.43	17390.9
1308.51	17379.3
1309.6	17368.2
1310.68	17362.1
1311.76	17354.9
1312.85	17351.1
1313.93	17348.3
1315.02	17346.4
1316.1	17345.7
1317.18	17343.7
1318.27	17329.8
1319.35	17311.1
1320.43	17290.1
1321.52	17278.5
1322.6	17262.1
1323.68	17257.1
1324.76	17249.8
1325.85	17244
1326.93	17237
1328.01	17230.8
1329.09	17226.8
1330.17	17214.1
1331.25	17178.9
1332.33	17166.7
1333.41	17167
1334.49	17183.6
1335.58	17200
1336.65	17216.6
1337.74	17212.2
1338.82	17174.5
1339.89	17146.1
1340.97	17124.9
1342.05	17108.4
1343.13	17101.8
1344.21	17105.7
1345.29	17110.2
1346.37	17114
1347.45	17108.1
1348.53	17090.4
1349.6	17080.4
1350.68	17071.1
1351.76	17071.2
1352.84	17072.4
1353.92	17080
1354.99	17090.2
1356.07	17095.7
1357.15	17097.5
1358.22	17069.2
1359.3	17051.9
1360.38	17045.9
1361.45	17043
1362.53	17046.4
1363.61	17062.1
1364.68	17081.4
1365.76	17098.1
1366.83	17114.4
1367.91	17083.7
1368.98	17039.4
1370.06	17033.9
1371.13	17041.4
1372.21	17048.2
1373.28	17053.6
1374.35	17056.5
1375.43	17061.4
1376.5	17051.1
1377.58	17055.1
1378.65	17069
1379.72	17085.3
1380.8	17093.4
1381.87	17090.5
1382.94	17053.5
1384.01	16968.2
1385.09	16937.2
1386.16	16969.6
1387.23	17015.2
1388.3	17003.2
1389.38	16989.3
1390.45	16980.3
1391.52	16972.2
1392.59	16966
1393.66	16958.9
1393.92	16956.7
1395	16953.7
1396.07	16954.3
1397.15	16954.3
1398.22	16940.4
1399.3	16925.7
1400.38	16912.8
1401.45	16900.4
1402.53	16888.9
1403.6	16877.5
1404.68	16866.6
1405.75	16856.3
1406.82	16847.4
1407.9	16839.1
1408.97	16832.6
1410.05	16830
1411.12	16832.8
1412.19	16841.8
1413.27	16854.2
1414.34	16847.2
1415.41	16825.3
1416.49	16824.9
1417.56	16817.7
1418.63	16812.6
1419.7	16824.7
1420.78	16838
1421.85	16817.5
1422.92	16794
1423.99	16771.3
1425.06	16747.4
1426.14	16722.1
1427.21	16712.5
1428.28	16717.2
1429.35	16719.2
1430.42	16717.7
1431.49	16714.6
1432.56	16709.3
1433.63	16706.3
1434.7	16700
1435.77	16691.2
1436.84	16674.9
1437.91	16633
1438.98	16644.6
1440.05	16663.4
1441.12	16676
1442.18	16684.1
1443.25	16688.2
1444.32	16690
1445.39	16688.7
1446.46	16684.6
1447.53	16678.2
1448.59	16669.2
1449.66	16660.2
1450.73	16651.8
1451.8	16643.8
1452.86	16635.7
1453.93	16628
1455	16620.8
1456.06	16614.9
1457.13	16609.6
1458.2	16605.8
1459.26	16600.4
1460.33	16601.4
1461.39	16604.6
1462.46	16601.9
1463.52	16585.1
1464.59	16529.5
1465.65	16536.3
1466.72	16568.4
1467.78	16587.9
1468.85	16593.8
1469.91	16589.4
1470.98	16581.5
1472.04	16571.6
1473.1	16561.4
1474.17	16550.9
1475.23	16541
1476.3	16533.4
1477.36	16531.7
1478.42	16532.2
1479.48	16533.9
1480.55	16540.1
1481.61	16543.7
1482.67	16531.2
1483.73	16506.6
1484.8	16490.4
1485.86	16480.5
1486.92	16485.5
1487.98	16494.7
1489.04	16490.9
1490.1	16484
1491.17	16480.2
1492.23	16469.3
1493.29	16446.4
1494.35	16450.8
1495.41	16459.2
1496.47	16475.2
1497.53	16480
1498.59	16470.1
1499.65	16447
1500.71	16408.9
1501.77	16383.4
1502.83	16347.6
1503.88	16318.6
1504.94	16299.4
1506	16288.6
1507.06	16285.8
1508.12	16291.2
1509.18	16300.4
1510.23	16307.9
1511.29	16313.9
1512.35	16321.3
1513.41	16321.9
1514.47	16319.9
1515.52	16308.2
1516.58	16290.5
1517.64	16271.6
1518.69	16250.6
1519.75	16228.2
1520.81	16203.3
1521.86	16182
1522.92	16167.8
1523.97	16160.5
1525.03	16166.9
1526.08	16173.1
1527.14	16181.1
1528.2	16182.5
1529.25	16181.4
1530.31	16178.8
1531.36	16174.5
1532.42	16168.5
1533.47	16160.7
1534.52	16151.5
1535.58	16141.5
1536.63	16132.4
1537.69	16127
1538.74	16124.7
1539.79	16120.3
1540.84	16116.1
1541.9	16109.6
1542.95	16104.8
1544	16098
1545.06	16081.4
1546.11	16054.3
1547.16	15941.3
1548.21	15979.6
1549.27	16053.9
1550.32	16080.2
1551.37	16069
1552.42	16065.7
1553.47	16063.2
1554.52	16053.4
1555.57	16044.5
1556.62	16038.3
1557.67	16033.5
1558.72	16032.8
1559.77	16037.6
1560.82	16047.3
1561.87	16064.9
1562.92	16084.2
1563.97	16108
1565.02	16123.7
1566.07	16121.2
1567.12	16100
1568.17	16070.5
1569.22	16040.5
1570.27	16014.7
1571.32	15997.9
1572.36	15990.9
1573.41	15992
1574.46	15998.7
1575.51	16008.1
1576.56	16022.9
1577.6	16016.5
1578.65	16000.5
1579.7	15939.3
1580.74	15995
1581.79	16072
1582.84	16019
1583.88	15993.7
1584.93	15978.8
1585.98	15958.9
1587.02	15945.1
1588.07	15932.6
1589.11	15920.7
1590.16	15911
1591.2	15902.8
1592.25	15896.7
1593.29	15892.6
1594.34	15891.7
1595.38	15902.2
1596.43	15910.6
1597.47	15912.2
1598.52	15919.8
1599.56	15918.5
1600.6	15910.1
1601.65	15883.9
1602.69	15858.6
1603.73	15829.6
1604.78	15811.5
1605.82	15794.1
1606.86	15790.2
1607.91	15801
1608.95	15801
1609.99	15785.9
1611.03	15761.8
1612.08	15733.2
1613.12	15718.4
1614.16	15701.1
1615.2	15686.7
1616.24	15672.9
1617.28	15659.9
1618.32	15647.5
1619.36	15635.5
1620.41	15623.7
1621.45	15612.7
1622.49	15601.3
1623.53	15586.1
1624.57	15564.7
1625.61	15544.9
1626.65	15534.5
1627.69	15525.8
1628.73	15515.7
1629.76	15504.7
1630.8	15494.6
1631.84	15485.5
1632.88	15476.5
1633.92	15466.3
1634.96	15455.2
1636	15442.1
1637.03	15426.4
1638.07	15417.1
1639.11	15408.4
1640.15	15401.4
1641.19	15397.6
1642.22	15396.8
1643.26	15396.1
1644.3	15388.2
1645.33	15378.2
1646.37	15370.9
1647.41	15364.3
1648.44	15357.9
1649.48	15350.5
1650.52	15343.5
1651.55	15337.2
1652.59	15331.5
1653.62	15327.6
1654.66	15323.5
1655.69	15324.5
1656.73	15330.1
1657.76	15332.8
1658.8	15327.3
1659.83	15289.5
1660.87	15248.1
1661.9	15253.6
1662.93	15243.3
1663.97	15234.2
1665	15228.4
1666.04	15223.2
1667.07	15193.2
1668.1	15204.5
1669.14	15219.5
1670.17	15227.9
1671.2	15231
1672.23	15218.9
1673.27	15182.4
1674.3	15145.6
1675.33	15135
1676.36	15144
1677.39	15149.2
1678.43	15169
1679.46	15168.1
1680.49	15152.7
1681.52	15145.7
1682.55	15137
1683.58	15127.8
1684.61	15118.1
1685.64	15108.4
1686.67	15098.5
1687.7	15089.1
1688.73	15084.1
1689.76	15085.1
1690.79	15083.2
1691.82	15080.1
1692.85	15076.1
1693.88	15070.3
1694.91	15062.3
1695.94	15053.2
1696.97	15042.8
1698	15031.2
1699.02	15018.4
1700.05	15004.8
1701.08	14989.7
1702.11	14973.3
1703.14	14955.8
1704.16	14933.3
1705.19	14906.5
1706.22	14872.5
1707.25	14845.6
1708.27	14874.7
1709.3	14896.6
1710.33	14903
1711.35	14898.4
1712.38	14894.2
1713.41	14882.9
1714.43	14870.6
1715.46	14857.1
1716.48	14836.7
1717.51	14820.6
1718.53	14829.5
1719.56	14834.6
1720.58	14835.1
1721.61	14832.1
1722.63	14824.1
1723.66	14811.2
1724.68	14787.6
1725.71	14763.3
1726.73	14739
1727.75	14715.8
1728.78	14699.1
1729.8	14683
1730.83	14668.8
1731.85	14656.6
1732.87	14647.5
1733.89	14640
1734.92	14631.2
1735.94	14622.4
1736.96	14613.7
1737.98	14605.5
1739.01	14598.5
1740.03	14591.9
1741.05	14589.1
1742.07	14589.2
1743.09	14592.8
1744.12	14599.2
1745.14	14600.4
1746.16	14600.6
1747.18	14592.1
1748.2	14587.2
1749.22	14569.9
1750.24	14548.6
1751.26	14542.1
1752.28	14552.2
1753.3	14577.6
1754.32	14567.8
1755.34	14526.7
1756.36	14501.3
1757.38	14486.1
1758.4	14475.3
1759.42	14461.3
1760.44	14455.7
1761.45	14447.5
1762.47	14443.6
1763.49	14434.4
1764.51	14411.3
1765.53	14405.4
1766.55	14406.8
1767.56	14407.7
1768.58	14410.4
1769.6	14409.5
1770.61	14408.3
1771.63	14404.1
1772.65	14395.9
1773.67	14384.6
1774.68	14369.9
1775.7	14352.2
1776.72	14331.4
1777.73	14308
1778.75	14308.4
1779.76	14308.3
1780.78	14312.1
1781.79	14301.9
1782.81	14289.2
1783.83	14273.8
1784.84	14256.3
1785.85	14236.3
1786.87	14217.5
1787.88	14201.2
1788.9	14185.8
1789.91	14172.1
1790.93	14158.1
1791.94	14146
1792.95	14135.1
1793.97	14133.3
1794.98	14146.1
1796	14148.3
1797.01	14148.3
1798.02	14143.4
1799.03	14134.4
1800.05	14122
1801.06	14106
1802.07	14087.7
1803.08	14067.6
1804.1	14050.8
1805.11	14034.3
1806.12	14011.2
1807.13	14017.2
1808.14	14023.4
1809.15	14034.8
1810.17	14037.7
1811.18	14009.6
1812.19	13986.1
1813.2	13963.3
1814.21	13941.2
1815.22	13919.9
1816.23	13894.1
1817.24	13890.3
1818.25	13890.4
1819.26	13897.4
1820.27	13900.1
1821.28	13893.1
1822.29	13895.3
1823.3	13883.3
1824.3	13856.8
1825.31	13827
1826.32	13788.8
1827.33	13757.5
1828.34	13736.5
1829.35	13725.1
1830.35	13720.6
1831.36	13729.9
1832.37	13736.5
1833.38	13737.5
1834.38	13731.7
1835.39	13718.3
1836.4	13705.2
1837.41	13696.3
1838.41	13690
1839.42	13692.4
1840.43	13682
1841.43	13672.9
1842.44	13658.5
1843.44	13643.2
1844.45	13623.8
1845.46	13601
1846.46	13581.9
1847.47	13568.8
1848.47	13565.4
1849.48	13563.7
1850.48	13558
1851.49	13552
1852.49	13546.3
1853.49	13539.6
1854.5	13531.8
1855.5	13523
1856.51	13512.8
1857.51	13501.5
1858.51	13486.5
1859.52	13469.4
1860.52	13449
1861.52	13433.2
1862.53	13429.8
1863.53	13431
1864.53	13436.2
1865.54	13432.4
1866.54	13424.3
1867.54	13414.9
1868.54	13404.6
1869.54	13393.5
1870.55	13379
1871.55	13364.1
1872.55	13347
1873.55	13329.4
1874.55	13313.7
1875.55	13301.2
1876.55	13304.7
1877.55	13308.9
1878.55	13314
1879.55	13311.9
1880.56	13302.1
1881.55	13285.7
1882.56	13271.5
1883.55	13261.6
1884.55	13254.5
1885.55	13247.1
1886.55	13244
1887.55	13245.7
1888.55	13245.1
1889.55	13242.1
1890.55	13226.3
1891.55	13204.5
1892.55	13187.3
1893.54	13171.2
1894.54	13156.5
1895.54	13143.3
1896.54	13131.4
1897.54	13121.4
1898.53	13113.8
1899.53	13107.2
1900.53	13101.4
1901.52	13093.5
1902.52	13090.7
1903.52	13092.3
1904.51	13102.1
1905.51	13102.8
1906.51	13084.3
1907.5	13063.7
1908.5	13041.2
1909.49	13017
1910.49	12991.6
1911.49	12970.4
1912.48	12948.5
1913.48	12925.1
1914.47	12903.9
1915.46	12886.3
1916.46	12886.4
1917.45	12889.2
1918.45	12890.5
1919.44	12889.8
1920.44	12893.8
1921.43	12876
1922.43	12832.3
1923.42	12797.4
1924.41	12766.8
1925.41	12750.1
1926.4	12781.8
1927.39	12779.2
1928.38	12750.4
1929.38	12729.8
1930.37	12722.1
1931.36	12717.6
1932.35	12711.6
1933.35	12723.1
1934.34	12729.8
1935.33	12706.9
1936.32	12699.5
1937.31	12692.7
1938.3	12687.1
1939.29	12682.2
1940.29	12677.4
1941.28	12672.8
1942.27	12663.4
1943.26	12653
1944.25	12643.8
1945.24	12624.9
1946.23	12603.5
1947.22	12575.7
1948.21	12546.9
1949.2	12524.6
1950.19	12505.3
1951.18	12508.4
1952.17	12509.6
1953.16	12515.7
1954.14	12525.8
1955.13	12531.2
1956.12	12539.7
1957.11	12559.1
1958.1	12484.6
1959.09	12456.2
1960.07	12432.1
1961.06	12401.1
1962.05	12390.7
1963.04	12391.5
1964.02	12399.4
1965.01	12395.2
1966	12377.7
1966.99	12353.6
1967.97	12343.4
1968.96	12349.6
1969.95	12354.8
1970.93	12359.1
1971.92	12361.4
1972.9	12331.5
1973.89	12303.1
1974.88	12268.4
1975.86	12240.1
1976.85	12212.2
1977.83	12201.7
1978.82	12204.3
1979.8	12203.4
1980.79	12199.2
1981.77	12190.2
1982.76	12187.1
1983.74	12188.4
1984.72	12193.9
1985.71	12204.9
1986.69	12203.6
1987.67	12194.8
1988.66	12180.1
1989.64	12167.5
1990.62	12152.9
1991.61	12136.3
1992.59	12119.1
1993.57	12101.1
1994.56	12083
1995.54	12064.6
1996.52	12047.4
1997.5	12030.5
1998.49	12036
1999.47	12039.4
2000.45	12038.3
2001.43	12033
2002.41	12022.7
2003.39	12000.2
2004.38	11980.5
2005.36	11964.9
2006.34	11952.5
2007.32	11943.1
2008.3	11936
2009.28	11930.7
2010.26	11926.3
2011.24	11923.8
2012.22	11920.3
2013.2	11907.2
2014.18	11891.5
2015.16	11874.5
2016.14	11860.2
2017.12	11869.4
2018.1	11856.5
2019.07	11842.2
2020.05	11826
2021.03	11799.5
2022.01	11781.1
2022.99	11766.9
2023.97	11761.2
2024.95	11752.8
2025.92	11746.3
2026.9	11741.6
2027.88	11737.4
2028.86	11737.4
2029.83	11741.3
2030.81	11744.9
2031.79	11742.6
2032.76	11718.9
2033.74	11701.3
2034.72	11685
2035.69	11670.6
2036.67	11656.5
2037.65	11644.6
2038.62	11631.8
2039.6	11617
2040.57	11601.5
2041.55	11586.1
2042.52	11570.5
2043.5	11558.2
2044.47	11558.2
2045.45	11557.3
2046.42	11549.4
2047.4	11536.8
2048.37	11521.1
2049.35	11506
2050.32	11492.1
2051.29	11478.1
2052.27	11464.9
2053.24	11452
2054.21	11439.7
2055.19	11427.8
2056.16	11416.4
2057.13	11405.8
2058.11	11397.1
2059.08	11389.9
2060.05	11384.4
2061.02	11380.6
2062	11373.6
2062.97	11361.9
2063.94	11347.2
2064.91	11331
2065.89	11316.9
2066.86	11300.1
2067.83	11282.2
2068.8	11262.9
2069.77	11242.4
2070.74	11220.2
2071.71	11197.1
2072.68	11190.1
2073.65	11176.3
2074.62	11176.3
2075.59	11174.9
2076.56	11170.3
2077.53	11160.5
2078.5	11145.8
2079.47	11125.9
2080.44	11105.6
2081.41	11078.3
2082.38	11059.4
2083.35	11041.5
2084.32	11028.5
2085.29	11021.2
2086.26	11019.1
2087.23	11027.3
2088.19	11035
2089.16	11047.3
2090.13	11056.1
2091.1	11056.6
2092.07	11047.9
2093.03	11029.9
2094	11014.1
2094.97	10992.4
2095.94	10970.2
2096.9	10955.8
2097.87	10932.2
2098.84	10909.2
2099.8	10897.3
2100.77	10902.5
2101.74	10904.3
2102.7	10900.8
2103.67	10891.9
2104.63	10882.3
2105.6	10874.9
2106.56	10866.6
2107.53	10857.4
2108.49	10846.7
2109.46	10834.9
2110.42	10821.6
2111.39	10806.7
2112.35	10790
2113.32	10771.8
2114.28	10753
2115.25	10735.5
2116.21	10738.8
2117.17	10739
2118.14	10732.5
2119.1	10715.1
2120.07	10689.4
2121.03	10665.5
2121.99	10638.5
2122.96	10624.6
2123.92	10626.7
2124.88	10622.7
2125.84	10620.4
2126.81	10620.6
2127.77	10621.6
2128.73	10622.8
2129.69	10624.4
2130.65	10625.6
2131.62	10625.7
2132.58	10611.2
2133.54	10582.6
2134.5	10552.1
2135.46	10531.4
2136.42	10521.2
2137.38	10521.9
2138.34	10520.1
2139.3	10518.5
2140.26	10515.1
2141.22	10509.6
2142.18	10498.3
2143.14	10477
2144.1	10448.6
2145.06	10420.9
2146.02	10394.2
2146.98	10391.8
2147.94	10399.8
2148.9	10401.1
2149.86	10398.2
2150.82	10391.1
2151.78	10382
2152.74	10357.6
2153.69	10344.7
2154.65	10337.6
2155.61	10328.9
2156.57	10321.9
2157.53	10313.7
2158.48	10303.7
2159.44	10291.1
2160.4	10276.6
2161.36	10260.3
2162.31	10240.5
2163.27	10223.5
2164.23	10210.9
2165.18	10202
2166.14	10196.5
2167.1	10194.4
2168.05	10195.3
2169.01	10193.6
2169.96	10184.4
2170.92	10155.4
2171.88	10122.8
2172.83	10085.2
2173.79	10037.2
2174.74	10009.2
2175.7	9998.54
2176.65	9991.49
2177.6	9986.01
2178.56	9983.22
2179.51	9975.45
2180.47	9962.59
2181.42	9947.74
2182.38	9932.68
2183.33	9918.18
2184.28	9907.71
2185.24	9897.37
2186.19	9886.45
2187.14	9875.79
2188.1	9864.72
2189.05	9846.37
2190	9827.17
2190.96	9807.28
2191.91	9788.61
2192.86	9777.55
2193.81	9781.1
2194.76	9777.01
2195.72	9774.88
2196.67	9770.62
2197.62	9761.75
2198.57	9750.87
2199.52	9739.97
2200.47	9728.32
2201.43	9717.31
2202.38	9706.85
2203.33	9699.42
2204.28	9691.2
2205.23	9682.77
2206.18	9674.09
2207.13	9664.66
2208.08	9654.33
2209.03	9642.96
2209.98	9630.53
2210.93	9618.58
2211.88	9611.72
2212.83	9613.34
2213.78	9613.76
2214.73	9624.13
2215.67	9624.33
2216.62	9629.12
2217.57	9614.84
2218.52	9593.13
2219.47	9566.81
2220.42	9547.78
2221.37	9533.51
2222.31	9523.31
2223.26	9516.12
2224.21	9513.45
2225.16	9518.73
2226.1	9513.39
2227.05	9492.55
2228	9475.1
2228.94	9459.67
2229.89	9453.07
2230.84	9448.07
2231.78	9443.86
2232.73	9440.79
2233.68	9438.51
2234.62	9436.86
2235.57	9434.53
2236.51	9429.57
2237.46	9423.86
2238.41	9418.29
2239.35	9417.13
2240.3	9420.07
2241.24	9419.1
2242.19	9415.07
2243.13	9408.35
2244.07	9387.67
2245.02	9374.72
2245.96	9366.81
2246.91	9366.16
2247.85	9363.13
2248.8	9362.04
2249.74	9365.17
2250.68	9364.14
2251.63	9357.37
2252.57	9348.9
2253.51	9341.72
2254.46	9334.75
2255.4	9330.36
2256.34	9327.52
2257.28	9322.67
2258.23	9317.24
2259.17	9311.24
2260.11	9304.95
2261.05	9300.34
2262	9295.69
2262.94	9296.57
2263.88	9297.88
2264.82	9294.06
2265.76	9291.24
2266.7	9284.44
2267.64	9276.27
2268.58	9265.26
2269.53	9257.63
2270.47	9252.48
2271.41	9248.52
2272.35	9246.26
2273.29	9245.7
2274.23	9246.91
2275.17	9252.6
2276.11	9254.54
2277.05	9246.38
2277.99	9237.48
2278.93	9234.16
2279.86	9235.58
2280.8	9234.34
2281.74	9229.47
2282.68	9221.73
2283.62	9200.34
2284.56	9197.07
2285.5	9187.87
2286.44	9177.76
2287.37	9171.65
2288.31	9168.01
2289.25	9170.05
2290.19	9174.98
2291.12	9179.02
2292.06	9179.66
2293	9177.06
2293.94	9170.45
2294.87	9160.24
2295.81	9149.87
2296.75	9141.22
2297.68	9134.61
2298.62	9129.37
2299.55	9124.76
2300.49	9120.96
2301.43	9114.84
2302.36	9107.77
2303.3	9101.56
2304.23	9096.53
2305.17	9092.42
2306.1	9088.35
2307.04	9083.87
2307.98	9079.54
2308.91	9071.89
2309.84	9061.61
2310.78	9046.5
2311.71	9032.85
2312.65	9015.1
2313.58	8999.33
2314.52	8983.25
2315.45	8970.42
2316.38	8961.97
2317.32	8961.92
2317.72	8963.77
2318.66	8971.04
2319.6	8971.88
2320.54	8967.98
2321.48	8958.82
2322.41	8945.36
2323.35	8926.85
2324.29	8917.4
2325.23	8913.15
2326.16	8915.15
2327.1	8911.74
2328.04	8900.94
2328.97	8885.01
2329.91	8865.64
2330.85	8842.38
2331.78	8831.96
2332.72	8830.86
2333.66	8838.26
2334.59	8851.61
2335.53	8861.65
2336.46	8864.07
2337.4	8857.85
2338.33	8838.82
2339.27	8819.3
2340.2	8804.44
2341.14	8793.17
2342.07	8786.31
2343.01	8783.09
2343.94	8783.5
2344.88	8785.63
2345.81	8786.8
2346.75	8784.7
2347.68	8777.68
2348.61	8764.62
2349.55	8747.21
2350.48	8727.17
2351.41	8707.81
2352.35	8696.08
2353.28	8695.22
2354.21	8704.62
2355.15	8707.24
2356.08	8705.96
2357.01	8701.54
2357.94	8694.32
2358.88	8686.98
2359.81	8677.54
2360.74	8662.9
2361.67	8645.88
2362.6	8622.83
2363.54	8607.28
2364.47	8609.7
2365.4	8616.97
2366.33	8629.43
2367.26	8636.43
2368.19	8640.28
2369.12	8640.03
2370.05	8636.24
2370.98	8628.45
2371.91	8616.58
2372.84	8601.6
2373.77	8583.87
2374.7	8568.55
2375.63	8560.89
2376.56	8556.55
2377.49	8563.3
2378.42	8559.29
2379.35	8554.17
2380.28	8548.13
2381.21	8540.59
2382.14	8531.78
2383.07	8522.04
2384	8511.39
2384.92	8499.71
2385.85	8488.14
2386.78	8479.1
2387.71	8472.93
2388.64	8485.05
2389.56	8496.52
2390.49	8506.57
2391.42	8505.57
2392.35	8499.82
2393.27	8488.35
2394.2	8471.61
2395.13	8451.01
2396.05	8434.11
2396.98	8426.06
2397.91	8426.35
2398.83	8427.33
2399.76	8426.44
2400.69	8418.71
2401.61	8411.68
2402.54	8404.17
2403.46	8397.36
2404.39	8391.34
2405.31	8388.04
2406.24	8389.88
2407.17	8372.11
2408.09	8360.43
2409.01	8347.97
2409.94	8337.37
2410.86	8329.46
2411.79	8322.92
2412.71	8317.29
2413.64	8312.9
2414.56	8309.34
2415.49	8306.34
2416.41	8301.78
2417.33	8296.79
2418.26	8285.49
2419.18	8274.94
2420.1	8264.26
2421.03	8253.43
2421.95	8242.37
2422.87	8234.02
2423.79	8226.63
2424.72	8219.62
2425.64	8212.92
2426.56	8205.86
2427.48	8198.03
2428.41	8189.48
2429.33	8179.69
2430.25	8169.76
2431.17	8161.12
2432.09	8158.4
2433.01	8153.51
2433.93	8145.2
2434.86	8134.29
2435.78	8123.31
2436.7	8111.1
2437.62	8094.39
2438.54	8068.58
2439.46	8053.65
2440.38	8050.36
2441.3	8056.12
2442.22	8056.77
2443.14	8056
2444.06	8053.37
2444.98	8049.13
2445.9	8043.19
2446.82	8035.78
2447.73	8022.89
2448.65	8007.03
2449.57	7989.56
2450.49	7970.79
2451.41	7948.71
2452.33	7928.81
2453.25	7930.35
2454.17	7928.21
2455.08	7948.53
2456	7944.13
2456.92	7934.31
2457.84	7921.79
2458.75	7905.74
2459.67	7891.67
2460.59	7877.74
2461.51	7877.1
2462.42	7885.11
2463.34	7892.53
2464.26	7897.34
2465.17	7893.36
2466.09	7887.16
2467	7878.69
2467.92	7867.93
2468.84	7852.54
2469.75	7838.24
2470.67	7831.98
2471.58	7828.68
2472.5	7815.55
2473.42	7804.51
2474.33	7794.44
2475.25	7786.29
2476.16	7779.78
2477.08	7774.51
2477.99	7770.63
2478.9	7768.23
2479.82	7767.19
2480.73	7767.52
2481.65	7768.26
2482.56	7768.47
2483.47	7768.22
2484.39	7764.74
2485.3	7758.66
2486.22	7750.95
2487.13	7743.71
2488.04	7737.21
2488.96	7731.16
2489.87	7726.07
2490.78	7718.94
2491.69	7710.88
2492.61	7701.96
2493.52	7688.25
2494.43	7674.03
2495.34	7656.42
2496.25	7644.71
2497.17	7655.69
2498.08	7667.23
2498.99	7679.5
2499.9	7670.72
2500.81	7664.83
2501.72	7657.86
2502.63	7649.25
2503.55	7635.01
2504.46	7630.07
2505.37	7634.53
2506.28	7639.3
2507.19	7643.68
2508.1	7645.3
2509.01	7638.52
2509.92	7631.02
2510.83	7619.61
2511.74	7603.29
2512.65	7585.36
2513.56	7569.05
2514.47	7557.14
2515.37	7546.76
2516.28	7540.96
2517.19	7539
2518.1	7539.72
2519.01	7541.77
2519.92	7544.08
2520.83	7544.8
2521.73	7542.52
2522.64	7539.64
2523.55	7535.98
2524.46	7531.63
2525.37	7526.77
2526.27	7521.35
2527.18	7515.53
2528.09	7509.3
2529	7502.83
2529.9	7496.25
2530.81	7489.57
2531.72	7480.86
2532.62	7468.66
2533.53	7448.85
2534.44	7444.84
2535.34	7433.09
2536.25	7429.78
2537.15	7433.69
2538.06	7435.47
2538.96	7430.2
2539.87	7420
2540.78	7410.67
2541.68	7401.89
2542.59	7395.54
2543.49	7389.06
2544.4	7382.78
2545.3	7376.12
2546.21	7368.72
2547.11	7360.44
2548.01	7351.28
2548.92	7341.89
2549.82	7332.67
2550.73	7323.7
2551.63	7315.03
2552.53	7306.79
2553.44	7298.57
2554.34	7292.51
2555.24	7285.73
2556.15	7277.87
2557.05	7266.6
2557.95	7237.81
2558.86	7219.65
2559.76	7211.76
2560.66	7218.44
2561.56	7235.5
2562.46	7250.15
2563.37	7260.44
2564.27	7259.45
2565.17	7252.71
2566.07	7236.92
2566.97	7218.58
2567.88	7192.88
2568.78	7163.71
2569.68	7137.14
2570.58	7115.73
2571.48	7121.23
2572.38	7117.79
2573.28	7120.94
2574.18	7124.88
2575.08	7129.27
2575.98	7130.84
2576.88	7129.23
2577.78	7125.3
2578.68	7118.61
2579.58	7109.91
2580.48	7096.98
2581.38	7082.1
2582.28	7065.06
2583.18	7047.86
2584.08	7041.77
2584.98	7037.03
2585.88	7038.11
2586.77	7040.24
2587.67	7042.61
2588.57	7043.88
2589.47	7035.81
2590.37	7027.11
2591.27	7015.79
2592.16	7002.04
2593.06	6984.99
2593.96	6967.27
2594.86	6960.12
2595.75	6958.44
2596.65	6963.6
2597.55	6973.44
2598.45	6969.73
2599.34	6973.1
2600.24	6958.53
2601.13	6936.65
2602.03	6914.35
2602.93	6902.01
2603.82	6899.05
2604.72	6900.96
2605.62	6907.19
2606.51	6902.14
2607.41	6894.44
2608.3	6885.09
2609.2	6873.43
2610.09	6859.4
2610.99	6843.1
2611.88	6824.66
2612.78	6808.49
2613.67	6799.05
2614.57	6796.92
2615.46	6801.59
2616.36	6807.35
2617.25	6817.52
2618.14	6819.79
2619.04	6818.37
2619.93	6814.08
2620.83	6806.52
2621.72	6795.8
2622.61	6780.98
2623.5	6757.32
2624.4	6768.93
2625.29	6786.83
2626.18	6774.6
2627.08	6774.08
2627.97	6752.01
2628.86	6734.34
2629.75	6720.18
2630.65	6709.52
2631.54	6702.6
2632.43	6699.59
2633.32	6702.25
2634.21	6700.22
2635.11	6691.66
2636	6676.39
2636.89	6655.16
2637.78	6646.28
2638.67	6642.6
2639.56	6662.08
2640.45	6627.44
2641.34	6587.47
2642.23	6582.15
2643.12	6581
2644.01	6579.13
2644.9	6574.37
2645.79	6569.78
2646.68	6564.09
2647.57	6557.12
2648.46	6549.21
2649.35	6540.12
2650.24	6529.97
2651.13	6518.94
2652.02	6507.51
2652.91	6497.6
2653.8	6492.73
2654.69	6493.6
2655.58	6513.24
2656.46	6483.86
2657.35	6466.96
2658.24	6458.73
2659.13	6450.5
2660.02	6445.13
2660.9	6450.47
2661.79	6450.54
2662.68	6449.21
2663.57	6449.93
2664.45	6448.46
2665.34	6432.3
2666.23	6421.61
2667.11	6419.23
2668	6417.85
2668.89	6411.33
2669.77	6402.79
2670.66	6394.35
2671.55	6384.62
2672.43	6373.23
2673.32	6365.53
2674.21	6358.79
2675.09	6354.94
2675.98	6350.3
2676.86	6345.72
2677.75	6341.27
2678.63	6337.04
2679.52	6333.03
2680.4	6329.11
2681.29	6325.84
2682.17	6325.99
2683.06	6331.86
2683.94	6305.39
2684.82	6269.65
2685.71	6254.31
2686.59	6247.34
2687.48	6244.92
2688.36	6236.62
2689.24	6226.69
2690.13	6217.8
2691.01	6209.11
2691.89	6199.8
2692.78	6189.85
2693.66	6180.18
2694.54	6171.71
2695.43	6166
2696.31	6162.78
2697.19	6163.38
2698.07	6162.69
2698.96	6159.93
2699.84	6155.66
2700.72	6150.37
2701.6	6143.71
2702.48	6138.57
2703.36	6139.5
2704.25	6139.62
2705.13	6135.95
2706.01	6130.72
2706.89	6124.12
2707.77	6115.24
2708.65	6104.53
2709.53	6091.96
2710.41	6077.65
2711.29	6061.86
2712.17	6051.28
2713.05	6048.48
2713.93	6047.43
2714.81	6047.67
2715.69	6048.37
2716.57	6049.13
2717.45	6051.97
2718.33	6045.74
2719.21	6028.16
2720.09	5973.27
2720.97	5988.05
2721.85	6004.79
2722.73	5998.39
2723.61	6000.81
2724.48	6000.53
2725.36	5997.58
2726.24	5992.05
2727.12	5986.12
2728	5976.08
2728.88	5964.53
2729.75	5946.09
2730.63	5933.73
2731.51	5928.93
2732.39	5927.78
2733.26	5928.38
2734.14	5926.77
2735.02	5924.87
2735.89	5924.82
2736.77	5924.13
2737.65	5924.2
2738.52	5923.73
2739.4	5922.03
2740.28	5918.3
2741.15	5910.88
2742.03	5902.45
2742.9	5891.39
2743.78	5878.11
2744.65	5863.24
2745.53	5847.26
2746.41	5832.52
2747.28	5819.6
2748.16	5814.75
2749.03	5823.67
2749.91	5840.01
2750.78	5843.42
2751.66	5846.52
2752.53	5844.53
2753.4	5839.21
2754.28	5826.62
2755.15	5815.89
2756.02	5803.16
2756.9	5791.56
2757.77	5785.47
2758.65	5781.64
2759.52	5777.57
2760.39	5774.06
2761.27	5770.63
2762.14	5767.27
2763.01	5764.14
2763.88	5762.15
2764.76	5760.67
2765.63	5760.45
2766.5	5762.61
2767.37	5763.48
2768.25	5761.75
2769.12	5750.61
2769.99	5727.89
2770.86	5706.39
2771.73	5665.48
2772.61	5734.16
2773.48	5702.29
2774.35	5685.42
2775.22	5669.63
2776.09	5660.77
2776.96	5659.11
2777.83	5658.74
2778.7	5657.49
2779.57	5654.27
2780.44	5650.95
2781.31	5646.75
2782.18	5641.54
2783.05	5635.57
2783.92	5628.87
2784.79	5621.77
2785.66	5620.4
2786.53	5616.34
2787.4	5610.05
2788.27	5601.74
2789.14	5591.38
2790.01	5569.95
2790.88	5551.55
2791.75	5537.56
2792.62	5533.9
2793.48	5532.22
2794.35	5548.99
2795.22	5553.3
2796.09	5553.55
2796.96	5549.91
2797.82	5543.89
2798.69	5537.54
2799.56	5529.92
2800.43	5522.52
2801.29	5515.08
2802.16	5507.67
2803.03	5503.28
2803.9	5499.09
2804.76	5495.09
2805.63	5491.56
2806.5	5488.85
2807.36	5484.6
2808.23	5479.35
2809.09	5473.3
2809.96	5466.82
2810.83	5459.92
2811.69	5454.23
2812.56	5451.96
2813.42	5448.56
2814.29	5445.23
2815.15	5441.04
2816.02	5432.95
2816.88	5414.79
2817.75	5426.08
2818.61	5421.35
2819.48	5417.5
2820.34	5414.52
2821.21	5412.68
2822.07	5406.74
2822.94	5404.84
2823.8	5410.53
2824.66	5411.66
2825.53	5408.34
2826.39	5400.33
2827.26	5387.46
2828.12	5366.74
2828.98	5356.98
2829.85	5346.52
2830.71	5339.31
2831.57	5343.99
2832.43	5344.43
2833.3	5345.21
2834.16	5339.08
2835.02	5325.25
2835.88	5319.74
2836.75	5320.91
2837.61	5324.07
2838.47	5321.39
2839.33	5319.07
2840.19	5312.58
2841.06	5299.74
2841.92	5291.58
2842.78	5286.31
2843.64	5282.02
2844.5	5278.14
2845.36	5275.91
2846.22	5274.93
2847.08	5274.59
2847.94	5274.37
2848.81	5273.56
2849.67	5271.36
2850.53	5269.34
2851.39	5266.62
2852.25	5263.1
2853.11	5258.8
2853.97	5252.61
2854.82	5245.53
2855.68	5239
2856.54	5232.43
2857.4	5225.67
2858.26	5218.73
2859.12	5211.74
2859.98	5204.77
2860.84	5197.71
2861.7	5192.56
2862.56	5194.05
2863.41	5200.08
2864.27	5195.82
2865.13	5175.17
2865.99	5167.89
2866.85	5163.65
2867.7	5160.59
2868.56	5156.63
2869.42	5154.74
2870.28	5152.99
2871.13	5150.75
2871.99	5147.91
2872.85	5136.58
2873.7	5123.06
2874.56	5119.36
2875.42	5121.22
2876.27	5123.68
2877.13	5124.45
2877.99	5122.82
2878.84	5119.37
2879.7	5115.77
2880.56	5109.18
2881.41	5101.59
2882.27	5093.4
2883.12	5087.72
2883.98	5084.06
2884.83	5081.76
2885.69	5070.96
2886.54	5056.87
2887.4	5042.72
2888.25	5025.57
2889.11	5011.17
2889.96	4999.39
2890.82	4989.5
2891.67	4981.61
2892.52	4976.18
2893.38	4974.32
2894.23	4980.77
2895.09	4992.07
2895.94	4997.65
2896.79	4999.72
2897.65	4998.25
2898.5	4993.15
2899.35	4984.52
2900.21	4972.47
2901.06	4960.03
2901.91	4956.08
2902.76	4950.25
2903.62	4945.72
2904.47	4938
2905.32	4929.25
2906.17	4920.33
2907.03	4911.42
2907.88	4903.18
2908.73	4896.16
2909.58	4890.58
2910.43	4895.2
2911.28	4911.13
2912.14	4915.39
2912.99	4907.57
2913.84	4888.91
2914.69	4868.63
2915.54	4842.67
2916.39	4829.47
2917.24	4823.35
2918.09	4835.64
2918.94	4853.08
2919.79	4859.26
2920.64	4860.09
2921.49	4848.67
2922.34	4835.17
2923.19	4819.34
2924.04	4801.29
2924.89	4781.19
2925.74	4758.68
2926.59	4779.04
2927.44	4777.85
2928.29	4775.73
2929.14	4773.51
2929.98	4773.16
2930.83	4763.95
2931.68	4752.69
2932.53	4748.75
2933.38	4740.88
2934.23	4737.67
2935.07	4740.49
2935.92	4740.03
2936.77	4739.9
2937.62	4732.65
2938.47	4725.68
2939.31	4717.8
2940.16	4709.45
2941.01	4702.54
2941.85	4702.56
2942.7	4699.92
2943.55	4691.97
2944.39	4681.4
2945.24	4671.23
2946.09	4659.25
2946.93	4660.4
2947.78	4664.28
2948.63	4669.59
2949.47	4673.66
2950.32	4675.54
2951.16	4674.73
2952.01	4672.59
2952.85	4660.85
2953.7	4645.93
2954.55	4633.5
2955.39	4623.66
2956.24	4613.84
2957.08	4611.52
2957.92	4613.2
2958.77	4615.09
2959.61	4617.58
2960.46	4614.28
2961.3	4609.65
2962.15	4603.39
2962.99	4596.04
2963.83	4587.78
2964.68	4579.15
2965.52	4575.45
2966.37	4574.15
2967.21	4571.77
2968.05	4569.08
2968.9	4565.82
2969.74	4562.19
2970.58	4557.76
2971.42	4552.15
2972.27	4546.08
2973.11	4539.57
2973.95	4532.75
2974.79	4526.61
2975.64	4519
2976.48	4510.94
2977.32	4501.83
2978.16	4495.69
2979	4495.84
2979.85	4497.97
2980.69	4503.2
2981.53	4506.43
2982.37	4487.04
2983.21	4473.89
2984.05	4465.39
2984.89	4456.72
2985.73	4461.09
2986.57	4470.42
2987.41	4475.89
2988.25	4477.22
2989.1	4472.82
2989.94	4467.08
2990.77	4462.67
2991.62	4456.26
2992.45	4451.88
2993.29	4451.05
2994.13	4453.06
2994.97	4455.12
2995.81	4457.49
2996.65	4460.12
2997.49	4463.88
2998.33	4467.16
2999.17	4455.9
