200.833	20320.1
202.102	20467.1
203.371	20497.2
204.639	20504.2
205.907	20525.7
207.175	20533.4
208.442	20536.5
209.71	20544.1
210.977	20552.7
212.244	20563.1
213.511	20575.1
214.777	20586.6
216.042	20600
217.309	20617.7
218.575	20640.6
219.84	20673.5
221.106	20716.2
222.371	20747.7
223.635	20782.3
224.9	20819.3
226.165	20858.6
227.429	20900.4
228.694	20943.8
229.956	20994.6
231.22	21049.5
232.484	21107.3
233.747	21156.3
235.011	21192.4
236.272	21227.7
237.535	21262.9
238.798	21298.8
240.06	21330.5
241.321	21360.2
242.583	21387.6
243.845	21413.5
245.105	21432.8
246.367	21463.3
247.628	21495.2
248.888	21527.4
250.149	21552
251.409	21570.1
252.67	21581.2
253.928	21585.6
255.189	21583.3
256.447	21574
257.707	21565.7
258.966	21592.5
260.224	21613.9
261.483	21656.5
262.742	21681.1
263.999	21695.1
265.257	21704.9
266.514	21722.2
267.772	21742.5
269.028	21767
270.286	21795.2
271.543	21817.1
272.799	21840
274.056	21864.1
275.311	21889.7
276.568	21916.4
277.823	21944.6
279.079	21974.6
280.333	22006
281.589	22037.4
282.843	22066.2
284.099	22092.6
285.352	22116.6
286.607	22139.8
287.86	22162.6
289.114	22185.1
290.368	22207.5
291.621	22229
292.875	22249.1
294.127	22267.6
295.38	22261.1
296.632	22249
297.884	22256
299.137	22260.1
300.388	22279
301.641	22308.2
302.891	22338.2
304.142	22343.1
305.394	22356.6
306.644	22364.1
307.894	22357.2
309.146	22369
310.395	22384.2
311.645	22404.8
312.895	22423
314.144	22437.6
315.393	22448.7
316.642	22455.8
317.892	22462.9
319.14	22465.5
320.388	22470.7
321.637	22496.8
322.885	22532.3
324.132	22575
325.38	22611.4
326.628	22643.9
327.875	22671.8
329.122	22689.9
330.368	22705.6
331.614	22722.4
332.862	22736.6
334.108	22748.4
335.353	22759.3
336.599	22769.2
337.844	22779
339.089	22789.6
340.335	22800.9
341.58	22813.3
342.824	22827.4
344.068	22843.1
345.312	22860
346.556	22878.5
347.8	22899.2
349.043	22922.7
350.286	22948.9
351.53	22971.4
352.774	22991.3
354.016	23006.6
355.259	23017.4
356.501	23025.4
357.743	23030.5
358.985	23033
360.227	23033.2
361.468	23030.7
362.709	23025
363.95	23016.7
365.191	23006.6
366.432	22995.8
367.672	22989.9
368.912	22987.3
370.152	22985.3
371.392	22985.7
372.632	22989.1
373.871	22998.1
375.11	23013.6
376.348	23050.2
377.587	23087.9
378.825	23117.6
380.064	23146.7
381.302	23173.1
382.54	23189.9
383.778	23203.9
385.016	23211
386.253	23213.9
387.489	23213.9
388.726	23215.3
389.963	23228
391.199	23243.7
392.436	23262.1
393.672	23282
394.907	23303.6
396.142	23326.8
397.378	23350.8
398.614	23368.5
399.849	23380
401.082	23385.3
402.317	23381.7
403.552	23388.3
404.786	23396.9
406.019	23407.6
407.253	23417.9
408.487	23439.9
409.721	23458.1
410.953	23463.5
412.186	23467.4
413.419	23470.5
414.651	23473.9
415.883	23484.3
417.116	23493.4
418.347	23502.1
419.579	23510
420.811	23517.5
422.041	23523.8
423.272	23528.4
424.504	23530.3
425.733	23538.5
426.964	23548.4
428.194	23560.5
429.424	23572.8
430.654	23575.5
431.883	23580.8
433.113	23580.7
434.341	23581.7
435.571	23583.9
436.799	23588.4
438.028	23602.3
439.257	23611.9
440.484	23621.9
441.713	23633.2
442.94	23645.3
444.168	23658.5
445.394	23672.5
446.622	23687.6
447.848	23703.6
449.076	23721
450.301	23722.6
451.528	23712.4
452.754	23705
453.979	23707.6
455.205	23712.6
456.43	23720.4
457.656	23731.1
458.88	23744.9
460.106	23761.1
461.33	23781.8
462.554	23794.8
463.779	23771.4
465.002	23761.5
466.225	23752.7
467.45	23753
468.672	23764.5
469.895	23786
471.119	23828.7
472.341	23844.7
473.563	23848.7
474.786	23826.9
476.008	23818.4
477.229	23793.4
478.452	23765.2
479.673	23740.3
480.894	23719.3
482.115	23706.7
483.337	23712.9
484.557	23720.6
485.777	23722.6
486.997	23733
488.218	23748.3
489.438	23750.1
490.657	23737.8
491.876	23721.4
493.096	23708.5
494.315	23702.4
495.533	23700.2
496.752	23701
497.97	23706.3
499.188	23715.1
500.407	23726.9
501.625	23739.4
502.842	23742.4
504.059	23732.7
505.276	23726.9
506.493	23739
507.71	23756.3
508.926	23770.1
510.142	23779.3
511.358	23783.7
512.575	23791.3
513.791	23797.8
515.006	23803.6
516.222	23807.6
517.437	23817.1
518.651	23837.8
519.866	23859
521.081	23883.7
522.295	23906.7
523.509	23926.6
524.723	23943.5
525.937	23957.2
527.15	23968.3
528.363	23976.2
529.576	23983
530.789	23984.1
532.002	23955.2
533.215	23921
534.426	23911
535.638	23946.8
536.85	23988.1
538.061	24023.3
539.273	24047.9
540.484	23990.4
541.695	23963.8
542.906	23943.6
544.117	23924.8
545.327	23936.1
546.537	23961.2
547.747	23990.7
548.957	24007.8
550.167	24013.3
551.377	24006.9
552.585	23989.3
553.794	23958.9
555.003	23943.8
556.212	23932.8
557.421	23951.5
558.628	23969.3
559.836	23994
561.044	24051.6
562.252	24084.5
563.458	24089.5
564.666	24073.4
565.873	24047.4
567.08	24026.1
568.286	24013.3
569.493	23997.5
570.699	23984.4
571.904	23972.8
573.111	23963.7
574.317	23957.4
575.521	23956.3
576.727	24001.6
577.932	24020
579.136	24031.8
580.341	24039.2
581.544	24040.7
582.749	24035.8
583.954	24024.7
585.156	24018.2
586.361	24033.3
587.563	24046.7
588.767	24059.8
589.97	24067
591.172	24071.8
592.375	24073.9
593.577	24073.8
594.78	24071.6
595.981	24067.4
597.183	24062.3
598.384	24056
599.586	24047.6
600.786	24037.4
601.988	24025.6
603.188	24012.7
604.389	23998.6
605.589	23986.5
606.79	23981.5
607.989	23981.6
609.188	23984.3
610.389	23991.1
611.587	23993.2
612.787	23981.1
613.986	23967.3
615.184	23951.2
616.383	23911.1
617.581	23879.8
618.78	23851.3
619.977	23827.8
621.174	23828.9
622.373	23829.3
623.57	23825.9
624.766	23824.1
625.964	23811
627.16	23788.9
628.356	23768.6
629.554	23754.9
630.749	23745.4
631.945	23737.7
633.14	23731.5
634.337	23723.2
635.532	23717.9
636.726	23712.4
637.921	23703
639.117	23692.7
640.311	23651.5
641.505	23648
642.699	23661.1
643.892	23684.8
645.087	23705.2
646.28	23720.4
647.473	23709.9
648.666	23706.5
649.859	23703.7
651.051	23700.9
652.245	23697.7
653.437	23699.6
654.629	23700.8
655.821	23700.8
657.012	23700.7
658.204	23700.6
659.395	23700.7
660.586	23700.7
661.777	23704.9
662.967	23719.5
664.158	23736
665.349	23754.2
666.539	23767.3
667.729	23762.9
668.919	23756.7
670.109	23755.8
671.298	23755.6
672.487	23753.2
673.676	23755.7
674.865	23779.5
676.053	23803.1
677.242	23816.9
678.43	23821.5
679.616	23817.4
680.804	23800.9
681.992	23780.2
683.179	23762.4
684.366	23754.3
685.554	23755.1
686.74	23759.1
687.927	23766.1
689.114	23781.1
690.3	23794.4
691.486	23800.6
692.671	23764
693.856	23746.9
695.042	23729.4
696.227	23715.2
697.413	23702
698.598	23692
699.781	23686.5
700.966	23677.5
702.15	23665.6
703.334	23650.9
704.518	23634.9
705.701	23616.4
706.885	23596
708.068	23573.7
709.252	23551
710.433	23534.7
711.616	23523.7
712.799	23523
713.98	23526.5
715.163	23535.2
716.345	23569.2
717.527	23602.5
718.707	23622.1
719.889	23626.4
721.071	23599.2
722.25	23551.2
723.432	23559.1
724.611	23567.8
725.792	23577.6
726.972	23587.9
728.151	23598.2
729.332	23599.7
730.512	23601.6
731.69	23599.1
732.87	23594.6
734.048	23588.9
735.227	23583.5
736.405	23581.8
737.584	23583.8
738.761	23590.8
739.94	23599
741.117	23610
742.295	23622.7
743.471	23637.4
744.649	23647
745.825	23652.8
747.003	23656.7
748.179	23658.7
749.356	23657.2
750.531	23653.9
751.708	23648.5
752.883	23641.9
754.059	23636
755.234	23629.9
756.409	23624.5
757.585	23618.8
758.759	23612.4
759.934	23607.3
761.108	23613
762.282	23621
763.456	23621.6
764.63	23618
765.803	23612.3
766.977	23602.1
768.15	23585.1
769.323	23564.1
770.496	23542.4
771.668	23523.5
772.841	23514.7
774.014	23504.7
775.185	23495
776.357	23489.9
777.528	23485.6
778.701	23476.5
779.872	23460.2
781.042	23426.9
782.213	23410.6
783.383	23399
784.555	23389.7
785.725	23379.5
786.895	23367.6
788.064	23360.3
789.234	23333.7
790.404	23304.3
791.573	23264
792.742	23239.4
793.911	23231.6
795.08	23241.5
796.248	23265.3
797.416	23289.9
798.584	23306.8
799.753	23315.3
800.921	23258.9
802.088	23248.2
803.256	23238.6
804.423	23235.4
805.59	23246.1
806.756	23264.1
807.923	23265.1
809.089	23260.4
810.256	23250.1
811.422	23232.3
812.587	23220.8
813.753	23212.3
814.918	23210.7
816.084	23216
817.249	23223.9
818.414	23230.7
819.578	23235
820.743	23244.7
821.907	23255.9
823.072	23271.2
824.236	23288.1
825.399	23305.5
826.562	23323.7
827.725	23343.4
828.889	23363.3
830.052	23378.9
831.215	23390.4
832.377	23380.3
833.54	23353.5
834.701	23337
835.863	23325.2
837.025	23302.1
838.187	23295.4
839.349	23303.5
840.51	23327.9
841.67	23354.6
842.831	23370.6
843.992	23370.9
845.153	23369.2
846.312	23348.5
847.473	23308
848.633	23249.2
849.793	23207.8
850.951	23183.5
852.111	23180
853.27	23185.6
854.428	23196.8
855.588	23206.9
856.747	23216.6
857.904	23219.7
859.063	23216
860.221	23206
861.378	23190.3
862.536	23168.1
863.694	23139.2
864.85	23103.4
866.008	23059.9
867.164	23019.7
868.321	22994.7
869.478	22977.4
870.633	22962.1
871.79	22954.1
872.945	22948.1
874.101	22942.8
875.256	22933.3
876.412	22922.6
877.566	22911
878.722	22898.3
879.876	22883.9
881.031	22868.2
882.185	22851.2
883.34	22834.2
884.493	22822.1
885.647	22814.3
886.8	22808.2
887.954	22800.4
889.107	22791.2
890.261	22778.6
891.413	22766.5
892.565	22760
893.718	22771.5
894.87	22764.9
896.023	22759.6
897.174	22755.4
898.326	22743.8
899.478	22737.6
900.629	22736
901.779	22737.5
902.931	22751.1
904.081	22773.8
905.231	22805.2
906.383	22772.8
907.532	22731.4
908.682	22718.3
909.831	22721.6
910.982	22731.8
912.131	22746.1
913.28	22789.3
914.429	22823.9
915.578	22846.9
916.727	22859.6
917.875	22845.3
919.023	22834.3
920.171	22815.4
921.32	22799.3
922.467	22786.4
923.614	22776.4
924.761	22769.4
925.908	22764.5
927.055	22761.7
928.203	22762.1
929.349	22765.1
930.496	22771.8
931.642	22779.7
932.787	22788
933.933	22796.8
935.079	22804.6
936.224	22790.6
937.369	22777.7
938.514	22758
939.659	22735.4
940.804	22709.4
941.948	22689.9
943.092	22682.8
944.236	22680.7
945.38	22681.3
946.524	22678.7
947.667	22677.9
948.811	22676.7
949.954	22673.9
951.097	22670.2
952.24	22664.7
953.383	22656.2
954.525	22642.8
955.667	22621.2
956.81	22595.9
957.952	22571.8
959.093	22556.8
960.235	22549.5
961.376	22549.2
962.516	22545.2
963.658	22541.8
964.798	22539.4
965.939	22537.5
967.08	22537.7
968.22	22537.7
969.359	22533.9
970.499	22520.1
971.639	22482.5
972.779	22459.2
973.918	22425.9
975.056	22401.2
976.195	22386.5
977.334	22381.2
978.473	22386
979.61	22400.2
980.749	22423.6
981.887	22456.5
983.024	22466.5
984.162	22452.9
985.3	22457
986.437	22456.2
987.573	22458.1
988.711	22472.5
989.848	22484.9
990.983	22493.4
992.12	22496.3
993.255	22488
994.392	22453.1
995.528	22431.5
996.662	22413.5
997.798	22403.4
998.933	22403.5
1000.07	22411.1
1001.2	22430.2
1002.34	22456.4
1003.47	22491.3
1004.61	22527.7
1005.74	22475.2
1006.87	22406.6
1008.01	22432.1
1009.14	22440.6
1010.27	22461.2
1011.41	22474
1012.54	22485.7
1013.67	22480.5
1014.81	22452.5
1015.94	22419.3
1017.07	22398
1018.2	22374.5
1019.33	22353
1020.47	22336.8
1021.6	22322.8
1022.73	22312.8
1023.86	22305.3
1024.99	22300.3
1026.12	22297.1
1027.25	22293.1
1028.38	22290.6
1029.51	22281.4
1030.64	22267.8
1031.77	22245.2
1032.9	22223.9
1034.03	22203.1
1035.16	22185.9
1036.29	22172.9
1037.42	22162.3
1038.55	22153.9
1039.67	22147.7
1040.8	22143.7
1041.93	22139.5
1043.06	22125.9
1044.19	22098.5
1045.31	22064.9
1046.44	22019.8
1047.57	21980
1048.69	21950.6
1049.82	21917.1
1050.95	21917.2
1052.08	21938.9
1053.2	21968.5
1054.33	21957.2
1055.45	21942.1
1056.58	21923.1
1057.7	21903.5
1058.83	21901
1059.95	21902.8
1061.08	21906.4
1062.2	21900.3
1063.33	21894.5
1064.45	21885.2
1065.58	21873.8
1066.7	21860
1067.83	21844
1068.95	21826.6
1070.07	21806.3
1071.2	21817.7
1072.32	21853.2
1073.44	21880.1
1074.56	21872.1
1075.69	21850.5
1076.81	21834.9
1077.93	21834.9
1079.05	21842.2
1080.17	21857
1081.3	21870.9
1082.42	21903.6
1083.54	21920.2
1084.66	21925.6
1085.78	21902.6
1086.9	21883.1
1088.02	21873
1089.14	21866
1090.26	21858.1
1091.38	21851.8
1092.5	21846.8
1093.62	21842
1094.74	21835.9
1095.86	21829.4
1096.98	21822.8
1098.1	21817
1099.22	21811.9
1100.34	21807.3
1101.45	21802.9
1102.57	21799.7
1103.69	21800.7
1104.81	21801.7
1105.93	21799.9
1107.04	21795.1
1108.16	21785.2
1109.28	21774
1110.4	21760
1111.51	21744
1112.63	21726.3
1113.75	21707.3
1114.86	21687.6
1115.98	21666.8
1117.09	21645.4
1118.21	21623.3
1119.32	21600.9
1120.44	21586.1
1121.55	21578.9
1122.67	21580.3
1123.78	21574.8
1124.9	21566.5
1126.01	21553.6
1127.13	21526.7
1128.24	21485.5
1129.35	21458.1
1130.47	21442.5
1131.58	21425
1132.7	21407.7
1133.81	21387.5
1134.92	21360.8
1136.03	21332.8
1137.15	21304.7
1138.26	21273.6
1139.37	21244.9
1140.48	21221.7
1141.59	21202.1
1142.71	21186.1
1143.82	21174.1
1144.93	21166.3
1146.04	21162.5
1147.15	21163.8
1148.26	21167.2
1149.37	21160.6
1150.48	21144.5
1151.59	21130.2
1152.7	21117.7
1153.81	21106.2
1154.92	21102
1156.03	21099.7
1157.14	21094.6
1158.25	21082.9
1159.36	21067.1
1160.47	21053
1161.58	21045.3
1162.68	21034.6
1163.79	21024
1164.9	21013.5
1166.01	21002.9
1167.12	20992.3
1168.22	20981.3
1169.33	20967.5
1170.44	20962.8
1171.55	20994.1
1172.65	21023.2
1173.76	21045.1
1174.87	21061.6
1175.97	21064.9
1177.08	21061
1178.18	21053.7
1179.29	21048.9
1180.4	21041.5
1181.5	21034
1182.61	21024.8
1183.71	21027.1
1184.82	21034.4
1185.92	21051.8
1187.02	21063
1188.13	21069.9
1189.23	21077.3
1190.34	21082.1
1191.44	21086
1192.54	21089.5
1193.65	21091.6
1194.75	21092
1195.85	21090.9
1196.96	21086.4
1198.06	21075
1199.16	21051.2
1200.26	21032.3
1201.37	21017.7
1202.47	21009
1203.57	21020
1204.67	21032.1
1205.77	21040.3
1206.87	21043.9
1207.97	21043.6
1209.08	21039.8
1210.18	21033.1
1211.28	21020.8
1212.38	21004.8
1213.48	20984.8
1214.58	20963.7
1215.68	20963.5
1216.78	20972.7
1217.88	20978.2
1218.98	20917
1220.07	20916.4
1221.17	20904.7
1222.27	20897.8
1223.37	20894.5
1224.47	20900.5
1225.57	20910.2
1226.66	20930.6
1227.76	20940
1228.86	20885.3
1229.96	20863.8
1231.06	20853.4
1232.15	20827.2
1233.25	20799.7
1234.35	20767.3
1235.44	20733.1
1236.54	20700.7
1237.63	20668
1238.73	20677
1239.83	20722.6
1240.92	20707.9
1242.02	20692
1243.11	20636.4
1244.21	20620.1
1245.3	20616.4
1246.4	20617
1247.49	20620.3
1248.59	20616.8
1249.68	20613.2
1250.78	20606.5
1251.87	20593.7
1252.96	20580.4
1254.06	20568.2
1255.15	20556.4
1256.24	20548.3
1257.34	20540.8
1258.43	20533.7
1259.52	20528.3
1260.62	20524.3
1261.71	20523
1262.8	20524.1
1263.89	20525.4
1264.98	20528.1
1266.08	20532.1
1267.17	20537.7
1268.26	20543.9
1269.35	20549.4
1270.44	20549.9
1271.53	20544
1272.62	20557.9
1273.71	20561.8
1274.8	20564.7
1275.89	20561.2
1276.98	20554.6
1278.07	20551.1
1279.16	20550.8
1280.25	20553.9
1281.34	20557.9
1282.43	20561.9
1283.52	20566.8
1284.61	20571.4
1285.69	20576.5
1286.78	20580.8
1287.87	20584.5
1288.96	20587.9
1290.05	20590.7
1291.13	20593.3
1292.22	20596.9
1293.31	20601.7
1294.4	20599.7
1295.48	20590.8
1296.57	20581
1297.66	20571.4
1298.74	20560.8
1299.83	20552
1300.92	20548.7
1302	20545.1
1303.09	20544.1
1304.17	20541.1
1305.26	20537
1306.34	20532.7
1307.43	20529.4
1308.51	20524.8
1309.6	20520.2
1310.68	20516.8
1311.76	20513.6
1312.85	20512
1313.93	20512.1
1315.02	20515.6
1316.1	20515.2
1317.18	20509.8
1318.27	20499.6
1319.35	20459
1320.43	20459
1321.52	20455.4
1322.6	20453.5
1323.68	20446.5
1324.76	20414.2
1325.85	20382.7
1326.93	20359.6
1328.01	20348.7
1329.09	20350.9
1330.17	20344.1
1331.25	20335.7
1332.33	20327.8
1333.41	20318
1334.49	20309.1
1335.58	20297.5
1336.65	20287.6
1337.74	20283.8
1338.82	20284.5
1339.89	20285.6
1340.97	20284.3
1342.05	20279.1
1343.13	20270.8
1344.21	20261.4
1345.29	20246.8
1346.37	20231.7
1347.45	20223.7
1348.53	20215
1349.6	20209.3
1350.68	20199.5
1351.76	20192.9
1352.84	20190.8
1353.92	20193
1354.99	20193.1
1356.07	20194.4
1357.15	20200.5
1358.22	20206.3
1359.3	20211.9
1360.38	20223.5
1361.45	20239.1
1362.53	20255
1363.61	20266.9
1364.68	20262
1365.76	20252.9
1366.83	20241.3
1367.91	20231.3
1368.98	20219.9
1370.06	20209.1
1371.13	20201.1
1372.21	20194.3
1373.28	20192.3
1374.35	20192.7
1375.43	20195.4
1376.5	20200.5
1377.58	20200.4
1378.65	20196.5
1379.72	20188.8
1380.8	20177.5
1381.87	20163.9
1382.94	20149.5
1384.01	20150.1
1385.09	20151.7
1386.16	20147.3
1387.23	20136.1
1388.3	20116.4
1389.38	20089.2
1390.45	20074.8
1391.52	20067.6
1392.59	20063.8
1393.66	20062.1
1393.92	20061.4
1395	20068.8
1396.07	20079
1397.15	20086.8
1398.22	20076.3
1399.3	20044.9
1400.38	20021.6
1401.45	20000.9
1402.53	19985.5
1403.6	19982.7
1404.68	19982.6
1405.75	19988.7
1406.82	19997
1407.9	20006
1408.97	20011.4
1410.05	20003.5
1411.12	19993.9
1412.19	19981.5
1413.27	19966.8
1414.34	19949.2
1415.41	19931.5
1416.49	19914.4
1417.56	19902.1
1418.63	19891.4
1419.7	19881.3
1420.78	19871.9
1421.85	19863
1422.92	19853.5
1423.99	19843.8
1425.06	19834.1
1426.14	19825.3
1427.21	19818.4
1428.28	19819.7
1429.35	19834.4
1430.42	19838.1
1431.49	19822.6
1432.56	19808.1
1433.63	19783
1434.7	19738.2
1435.77	19729.3
1436.84	19736.7
1437.91	19756.5
1438.98	19776.1
1440.05	19789.2
1441.12	19787.7
1442.18	19764
1443.25	19745.6
1444.32	19730.2
1445.39	19719
1446.46	19712.1
1447.53	19710.1
1448.59	19702.4
1449.66	19684
1450.73	19659.8
1451.8	19647.1
1452.86	19643.8
1453.93	19647.1
1455	19655.1
1456.06	19668.4
1457.13	19683.5
1458.2	19701.6
1459.26	19701.6
1460.33	19685.9
1461.39	19666.5
1462.46	19645.2
1463.52	19616.5
1464.59	19599.7
1465.65	19603.8
1466.72	19615.9
1467.78	19632.9
1468.85	19648.8
1469.91	19646.7
1470.98	19647.7
1472.04	19645.8
1473.1	19642.2
1474.17	19636.5
1475.23	19626.7
1476.3	19611.6
1477.36	19594.2
1478.42	19577
1479.48	19574.3
1480.55	19574.8
1481.61	19573.9
1482.67	19575.6
1483.73	19574.1
1484.8	19573
1485.86	19570
1486.92	19564.6
1487.98	19556.7
1489.04	19545.8
1490.1	19532
1491.17	19516.8
1492.23	19496.2
1493.29	19441.1
1494.35	19435.4
1495.41	19442.1
1496.47	19469
1497.53	19493.1
1498.59	19489.1
1499.65	19463.2
1500.71	19437.6
1501.77	19397
1502.83	19367.9
1503.88	19363
1504.94	19375.8
1506	19379.7
1507.06	19371.5
1508.12	19361.6
1509.18	19353.9
1510.23	19345.7
1511.29	19337.9
1512.35	19329.7
1513.41	19322
1514.47	19313.7
1515.52	19303.7
1516.58	19289.8
1517.64	19270.2
1518.69	19254.6
1519.75	19244.9
1520.81	19242.3
1521.86	19246.6
1522.92	19251.5
1523.97	19252.2
1525.03	19241.9
1526.08	19227.4
1527.14	19206.9
1528.2	19186.7
1529.25	19170.2
1530.31	19158.6
1531.36	19145.6
1532.42	19143.9
1533.47	19147.2
1534.52	19155
1535.58	19158.5
1536.63	19168.6
1537.69	19139.8
1538.74	19109.9
1539.79	19073.6
1540.84	19051.6
1541.9	19049.6
1542.95	19079.7
1544	19091.7
1545.06	19095.5
1546.11	19093.9
1547.16	19095.3
1548.21	19094.8
1549.27	19093.8
1550.32	19092.5
1551.37	19091.1
1552.42	19089.7
1553.47	19088.2
1554.52	19086.8
1555.57	19086.2
1556.62	19085.1
1557.67	19084.8
1558.72	19077.8
1559.77	19046.6
1560.82	19010.6
1561.87	18963.7
1562.92	18931.8
1563.97	18980.5
1565.02	18995.6
1566.07	19008.2
1567.12	19017.9
1568.17	19023.7
1569.22	18985.3
1570.27	18982.7
1571.32	18985.6
1572.36	18990.7
1573.41	18995.9
1574.46	19001.2
1575.51	19001.4
1576.56	18997.2
1577.6	18991.7
1578.65	18984.9
1579.7	18977.7
1580.74	18970.9
1581.79	18965.4
1582.84	18959
1583.88	18951.7
1584.93	18943.7
1585.98	18934.9
1587.02	18925.2
1588.07	18914.6
1589.11	18902.9
1590.16	18890.2
1591.2	18886.3
1592.25	18894.4
1593.29	18898
1594.34	18904.7
1595.38	18903.2
1596.43	18893.6
1597.47	18880.2
1598.52	18858.2
1599.56	18832.6
1600.6	18810.3
1601.65	18784.9
1602.69	18760.3
1603.73	18736.8
1604.78	18714.9
1605.82	18694.7
1606.86	18676.2
1607.91	18659.9
1608.95	18645.4
1609.99	18632.3
1611.03	18620.6
1612.08	18606.8
1613.12	18596.8
1614.16	18593.3
1615.2	18590.7
1616.24	18588.3
1617.28	18585.4
1618.32	18576
1619.36	18563.8
1620.41	18549.2
1621.45	18532.5
1622.49	18514.4
1623.53	18494.6
1624.57	18477.6
1625.61	18457.6
1626.65	18439
1627.69	18423
1628.73	18410.2
1629.76	18405.7
1630.8	18400.3
1631.84	18376.7
1632.88	18349.6
1633.92	18333.3
1634.96	18319.5
1636	18308.3
1637.03	18300.9
1638.07	18297.2
1639.11	18296.8
1640.15	18299.2
1641.19	18304.1
1642.22	18307
1643.26	18311
1644.3	18300.5
1645.33	18265.8
1646.37	18238.4
1647.41	18200.3
1648.44	18180.6
1649.48	18166.5
1650.52	18158.1
1651.55	18156
1652.59	18154.2
1653.62	18144.4
1654.66	18132.3
1655.69	18112.3
1656.73	18120.6
1657.76	18142
1658.8	18183.1
1659.83	18160.3
1660.87	18149.9
1661.9	18135.3
1662.93	18125.1
1663.97	18100.7
1665	18102.8
1666.04	18115
1667.07	18124.2
1668.1	18134.9
1669.14	18080.6
1670.17	18039.2
1671.2	18056.5
1672.23	18076
1673.27	18075.2
1674.3	18074.7
1675.33	18072.5
1676.36	18073
1677.39	18036.4
1678.43	17995.8
1679.46	17927
1680.49	17936.6
1681.52	17979.6
1682.55	17967.3
1683.58	17965.4
1684.61	17961
1685.64	17959.9
1686.67	17960.2
1687.7	17964.5
1688.73	17958.8
1689.76	17949.4
1690.79	17931.2
1691.82	17904.2
1692.85	17869.3
1693.88	17848.6
1694.91	17829
1695.94	17815.6
1696.97	17810.9
1698	17806
1699.02	17825.1
1700.05	17869.9
1701.08	17886.3
1702.11	17883.9
1703.14	17805.2
1704.16	17752
1705.19	17768.1
1706.22	17744.5
1707.25	17792.7
1708.27	17754.5
1709.3	17730.2
1710.33	17709.5
1711.35	17692.2
1712.38	17678.7
1713.41	17663.9
1714.43	17649.7
1715.46	17636
1716.48	17623.1
1717.51	17610.7
1718.53	17598.8
1719.56	17587.6
1720.58	17577.2
1721.61	17569.9
1722.63	17563.6
1723.66	17553.7
1724.68	17541.3
1725.71	17527.2
1726.73	17512.4
1727.75	17500.9
1728.78	17488.7
1729.8	17476.5
1730.83	17464.9
1731.85	17453.5
1732.87	17442.8
1733.89	17433.2
1734.92	17425.2
1735.94	17418.8
1736.96	17413.1
1737.98	17407.6
1739.01	17401.6
1740.03	17378.8
1741.05	17351.3
1742.07	17320.4
1743.09	17304.3
1744.12	17303.4
1745.14	17300.9
1746.16	17300.4
1747.18	17295.7
1748.2	17286.8
1749.22	17272.6
1750.24	17256.6
1751.26	17248.4
1752.28	17244.7
1753.3	17241.4
1754.32	17239.4
1755.34	17238.1
1756.36	17238.4
1757.38	17235.7
1758.4	17225.1
1759.42	17212.8
1760.44	17187.5
1761.45	17163
1762.47	17143.1
1763.49	17124.6
1764.51	17105.5
1765.53	17100.4
1766.55	17091.9
1767.56	17085.9
1768.58	17082.1
1769.6	17077
1770.61	17070.3
1771.63	17061.8
1772.65	17052.4
1773.67	17044.1
1774.68	17035.2
1775.7	17035.4
1776.72	17025.8
1777.73	17017.9
1778.75	17011.1
1779.76	17004.9
1780.78	16998.8
1781.79	16992.2
1782.81	16985.1
1783.83	16977.5
1784.84	16968.9
1785.85	16959.2
1786.87	16944.3
1787.88	16914.9
1788.9	16891.6
1789.91	16874.1
1790.93	16867.6
1791.94	16870.5
1792.95	16867.5
1793.97	16863
1794.98	16857.6
1796	16848.3
1797.01	16835.9
1798.02	16821.8
1799.03	16805.9
1800.05	16788.5
1801.06	16770.5
1802.07	16763.1
1803.08	16757.2
1804.1	16752.3
1805.11	16749
1806.12	16739.7
1807.13	16701.6
1808.14	16741.5
1809.15	16740
1810.17	16735
1811.18	16676.8
1812.19	16628
1813.2	16573.2
1814.21	16590.2
1815.22	16587.9
1816.23	16582.1
1817.24	16566.5
1818.25	16548.5
1819.26	16529.5
1820.27	16506.8
1821.28	16484.4
1822.29	16464.3
1823.3	16457.3
1824.3	16449.3
1825.31	16442.6
1826.32	16428.2
1827.33	16414.1
1828.34	16402.3
1829.35	16389.6
1830.35	16375.5
1831.36	16358.3
1832.37	16335.6
1833.38	16312.3
1834.38	16291.3
1835.39	16273.2
1836.4	16268.9
1837.41	16264.3
1838.41	16260.3
1839.42	16256.2
1840.43	16252.7
1841.43	16250
1842.44	16247.1
1843.44	16242.9
1844.45	16231.8
1845.46	16201.5
1846.46	16168.5
1847.47	16131.8
1848.47	16097.2
1849.48	16068.8
1850.48	16110.6
1851.49	16106.4
1852.49	16107.4
1853.49	16099
1854.5	16095.2
1855.5	16089.5
1856.51	16081.2
1857.51	16070.2
1858.51	16056.9
1859.52	16042.1
1860.52	16026.9
1861.52	16011.3
1862.53	15997
1863.53	15981.9
1864.53	15967.1
1865.54	15951.9
1866.54	15939.8
1867.54	15940.7
1868.54	15952.8
1869.54	15951.8
1870.55	15948.7
1871.55	15944.5
1872.55	15931.1
1873.55	15915.2
1874.55	15897.1
1875.55	15881.9
1876.55	15873.3
1877.55	15866.2
1878.55	15860.9
1879.55	15845.9
1880.56	15830.9
1881.55	15809.7
1882.56	15783.7
1883.55	15755.7
1884.55	15728
1885.55	15707.9
1886.55	15698.3
1887.55	15688.1
1888.55	15681.4
1889.55	15666.9
1890.55	15644.8
1891.55	15645.3
1892.55	15645.4
1893.54	15644.6
1894.54	15647.5
1895.54	15646.7
1896.54	15640.6
1897.54	15629.9
1898.53	15614.8
1899.53	15593.6
1900.53	15571.9
1901.52	15554.1
1902.52	15537.9
1903.52	15523.2
1904.51	15519.5
1905.51	15509.5
1906.51	15501.6
1907.5	15493.3
1908.5	15484.6
1909.49	15479.4
1910.49	15474.4
1911.49	15469.9
1912.48	15461.6
1913.48	15411.1
1914.47	15361.2
1915.46	15319
1916.46	15354.6
1917.45	15344.8
1918.45	15336.9
1919.44	15329.1
1920.44	15321.5
1921.43	15313.4
1922.43	15304.5
1923.42	15294.9
1924.41	15285.3
1925.41	15274.6
1926.4	15262.5
1927.39	15246.2
1928.38	15224.7
1929.38	15202.7
1930.37	15178.4
1931.36	15151.8
1932.35	15122.8
1933.35	15096.5
1934.34	15082.3
1935.33	15076.3
1936.32	15093.2
1937.31	15110.3
1938.3	15115.2
1939.29	15115.8
1940.29	15111.2
1941.28	15089
1942.27	15056.2
1943.26	15032
1944.25	15008.9
1945.24	14989.5
1946.23	14974.3
1947.22	14962.8
1948.21	14954.6
1949.2	14950.1
1950.19	14949.6
1951.18	14951.9
1952.17	14938.1
1953.16	14921
1954.14	14902.3
1955.13	14868.6
1956.12	14842.8
1957.11	14826
1958.1	14813.9
1959.09	14808.2
1960.07	14810.4
1961.06	14810.1
1962.05	14805.4
1963.04	14793.2
1964.02	14777.1
1965.01	14757.1
1966	14739.2
1966.99	14724.3
1967.97	14708.5
1968.96	14692.1
1969.95	14676
1970.93	14660.4
1971.92	14645.2
1972.9	14631.1
1973.89	14619.3
1974.88	14612.2
1975.86	14606.1
1976.85	14600.7
1977.83	14595.1
1978.82	14588.5
1979.8	14581.4
1980.79	14573
1981.77	14563.8
1982.76	14554.4
1983.74	14545.3
1984.72	14539.5
1985.71	14543
1986.69	14538.3
1987.67	14529.4
1988.66	14515.2
1989.64	14492.4
1990.62	14463.6
1991.61	14436.5
1992.59	14412.9
1993.57	14405.7
1994.56	14406
1995.54	14411.3
1996.52	14419.1
1997.5	14410.8
1998.49	14401
1999.47	14376.1
2000.45	14347.8
2001.43	14321.5
2002.41	14311.4
2003.39	14313
2004.38	14326.2
2005.36	14327.6
2006.34	14308.3
2007.32	14270
2008.3	14243.4
2009.28	14218.3
2010.26	14194.9
2011.24	14175
2012.22	14157.9
2013.2	14145.4
2014.18	14135.5
2015.16	14128
2016.14	14118.9
2017.12	14100.7
2018.1	14082.7
2019.07	14072.5
2020.05	14060.8
2021.03	14050.5
2022.01	14041.3
2022.99	14033.7
2023.97	14027.6
2024.95	14023.3
2025.92	14022.1
2026.9	14023.7
2027.88	14030
2028.86	14031.8
2029.83	14000.7
2030.81	13965.1
2031.79	13926.7
2032.76	13909.7
2033.74	13886.3
2034.72	13864.8
2035.69	13846.2
2036.67	13830.7
2037.65	13818.5
2038.62	13809.7
2039.6	13804.6
2040.57	13802.9
2041.55	13804.2
2042.52	13804.7
2043.5	13800.5
2044.47	13793
2045.45	13779.7
2046.42	13759.9
2047.4	13735.1
2048.37	13705.4
2049.35	13686.3
2050.32	13677.2
2051.29	13669.8
2052.27	13664.2
2053.24	13659.5
2054.21	13647.5
2055.19	13632.1
2056.16	13613.8
2057.13	13594
2058.11	13569.2
2059.08	13552.9
2060.05	13552.3
2061.02	13549.8
2062	13546.1
2062.97	13541
2063.94	13534
2064.91	13525.9
2065.89	13516.2
2066.86	13504.9
2067.83	13490.2
2068.8	13469.1
2069.77	13448.1
2070.74	13426.4
2071.71	13402.6
2072.68	13379.5
2073.65	13360.7
2074.62	13347.1
2075.59	13340
2076.56	13329.9
2077.53	13318.2
2078.5	13304.5
2079.47	13289.7
2080.44	13270.9
2081.41	13251.5
2082.38	13231.4
2083.35	13211.1
2084.32	13194.7
2085.29	13187.5
2086.26	13200.2
2087.23	13211.8
2088.19	13216.3
2089.16	13213
2090.13	13202.2
2091.1	13159.7
2092.07	13128.8
2093.03	13096.6
2094	13057.9
2094.97	13033.2
2095.94	13020.5
2096.9	13021.2
2097.87	13017.8
2098.84	13014
2099.8	13013.5
2100.77	13007
2101.74	12996.8
2102.7	12984.1
2103.67	12961.7
2104.63	12957.6
2105.6	12955
2106.56	12954
2107.53	12951.6
2108.49	12943
2109.46	12935.1
2110.42	12924.3
2111.39	12912.3
2112.35	12899.3
2113.32	12886.4
2114.28	12879.1
2115.25	12871.5
2116.21	12850.1
2117.17	12830.2
2118.14	12811.3
2119.1	12811.6
2120.07	12802.3
2121.03	12789.1
2121.99	12772.3
2122.96	12751.3
2123.92	12726.8
2124.88	12707.9
2125.84	12695.4
2126.81	12689
2127.77	12690
2128.73	12690.4
2129.69	12694.6
2130.65	12688.8
2131.62	12678
2132.58	12654.5
2133.54	12629.6
2134.5	12608.4
2135.46	12591.4
2136.42	12578.1
2137.38	12573.3
2138.34	12577
2139.3	12573
2140.26	12565.6
2141.22	12557.9
2142.18	12547.7
2143.14	12535.6
2144.1	12521.6
2145.06	12506
2146.02	12487.5
2146.98	12468
2147.94	12448.2
2148.9	12431.1
2149.86	12416.9
2150.82	12403.9
2151.78	12392.8
2152.74	12383.7
2153.69	12377.5
2154.65	12373.3
2155.61	12362.6
2156.57	12332.1
2157.53	12298.7
2158.48	12267
2159.44	12246.6
2160.4	12227.7
2161.36	12213.3
2162.31	12204
2163.27	12199.4
2164.23	12199.5
2165.18	12204.5
2166.14	12208.9
2167.1	12209.2
2168.05	12198.6
2169.01	12182.7
2169.96	12154.1
2170.92	12118.4
2171.88	12087.9
2172.83	12057.9
2173.79	12027.2
2174.74	11999
2175.7	11976.2
2176.65	11956.8
2177.6	11942
2178.56	11930.7
2179.51	11906.2
2180.47	11889
2181.42	11874.6
2182.38	11862.5
2183.33	11851.9
2184.28	11843.7
2185.24	11838.7
2186.19	11835.7
2187.14	11833.5
2188.1	11825.8
2189.05	11778.8
2190	11745.5
2190.96	11726.4
2191.91	11715.5
2192.86	11708.3
2193.81	11706.1
2194.76	11709.6
2195.72	11715.1
2196.67	11715
2197.62	11712.1
2198.57	11703.5
2199.52	11677.2
2200.47	11652.7
2201.43	11625.2
2202.38	11599
2203.33	11579.7
2204.28	11563
2205.23	11557.7
2206.18	11557.6
2207.13	11560.7
2208.08	11564.4
2209.03	11564.1
2209.98	11554
2210.93	11541
2211.88	11524.3
2212.83	11503.2
2213.78	11478.5
2214.73	11464.1
2215.67	11454.7
2216.62	11446.6
2217.57	11438.6
2218.52	11430.4
2219.47	11421.9
2220.42	11412.4
2221.37	11402.3
2222.31	11392
2223.26	11381.6
2224.21	11371.4
2225.16	11357.2
2226.1	11336.4
2227.05	11317
2228	11310.6
2228.94	11308.7
2229.89	11308.9
2230.84	11313
2231.78	11325.4
2232.73	11333
2233.68	11336
2234.62	11334.8
2235.57	11328.4
2236.51	11316.3
2237.46	11299.3
2238.41	11278.5
2239.35	11258.5
2240.3	11246.5
2241.24	11236.7
2242.19	11235.2
2243.13	11234.6
2244.07	11231.1
2245.02	11225.7
2245.96	11220.9
2246.91	11214.6
2247.85	11209
2248.8	11203.6
2249.74	11197.8
2250.68	11191
2251.63	11184.7
2252.57	11182.1
2253.51	11177
2254.46	11165
2255.4	11153.1
2256.34	11149.4
2257.28	11147.5
2258.23	11144.7
2259.17	11143.9
2260.11	11136.9
2261.05	11134.9
2262	11135.1
2262.94	11134.8
2263.88	11130.5
2264.82	11122.7
2265.76	11119.1
2266.7	11116
2267.64	11111.6
2268.58	11105.9
2269.53	11098.9
2270.47	11091.5
2271.41	11084.6
2272.35	11077.2
2273.29	11072.4
2274.23	11066.5
2275.17	11068.3
2276.11	11075.3
2277.05	11077.8
2277.99	11072.3
2278.93	11058.5
2279.86	11046.5
2280.8	11034.4
2281.74	11023.7
2282.68	11013.3
2283.62	11005.9
2284.56	11011.3
2285.5	11009.8
2286.44	11002.5
2287.37	10996
2288.31	10984
2289.25	10967.3
2290.19	10958.5
2291.12	10962.5
2292.06	10973.5
2293	10980.4
2293.94	10983.6
2294.87	10984.2
2295.81	10972.9
2296.75	10962.1
2297.68	10945.3
2298.62	10929
2299.55	10921
2300.49	10921.1
2301.43	10922.8
2302.36	10921
2303.3	10915.9
2304.23	10909
2305.17	10893.4
2306.1	10872.1
2307.04	10848.8
2307.98	10830.3
2308.91	10824.1
2309.84	10826
2310.78	10828.3
2311.71	10825
2312.65	10816.1
2313.58	10806.3
2314.52	10794.1
2315.45	10779.8
2316.38	10764.2
2317.32	10750.7
2317.72	10745.7
2318.66	10753.6
2319.6	10752.9
2320.54	10742.5
2321.48	10723.3
2322.41	10707.1
2323.35	10686.8
2324.29	10652.6
2325.23	10630.7
2326.16	10624.3
2327.1	10625.6
2328.04	10629.6
2328.97	10628.5
2329.91	10628.1
2330.85	10624.2
2331.78	10616.3
2332.72	10606.2
2333.66	10593.5
2334.59	10578.6
2335.53	10563.3
2336.46	10547.8
2337.4	10536.9
2338.33	10526.2
2339.27	10516.6
2340.2	10508.1
2341.14	10500.8
2342.07	10494.7
2343.01	10489.5
2343.94	10484.4
2344.88	10478.5
2345.81	10474.3
2346.75	10469.9
2347.68	10463.3
2348.61	10455.6
2349.55	10446
2350.48	10434.8
2351.41	10421.3
2352.35	10405.8
2353.28	10392.1
2354.21	10381.3
2355.15	10372.8
2356.08	10367
2357.01	10363.5
2357.94	10362.5
2358.88	10364.1
2359.81	10367.5
2360.74	10372.5
2361.67	10377.3
2362.6	10384.8
2363.54	10367.3
2364.47	10312.9
2365.4	10291.3
2366.33	10293.7
2367.26	10310
2368.19	10326.3
2369.12	10328.7
2370.05	10330.9
2370.98	10329.2
2371.91	10322.4
2372.84	10311.8
2373.77	10296.7
2374.7	10277.9
2375.63	10256
2376.56	10232
2377.49	10223.2
2378.42	10221.2
2379.35	10215.2
2380.28	10207.3
2381.21	10197
2382.14	10186
2383.07	10180.5
2384	10178.8
2384.92	10177
2385.85	10176.4
2386.78	10175.5
2387.71	10172.1
2388.64	10165.2
2389.56	10156.1
2390.49	10147.6
2391.42	10138.6
2392.35	10128.7
2393.27	10118.4
2394.2	10108
2395.13	10097.2
2396.05	10086.5
2396.98	10075.2
2397.91	10084.7
2398.83	10119.9
2399.76	10117.5
2400.69	10115.6
2401.61	10095.4
2402.54	10074.1
2403.46	10045.7
2404.39	10022.2
2405.31	10028.3
2406.24	10020.9
2407.17	10008.9
2408.09	9994.56
2409.01	9987.78
2409.94	9985.9
2410.86	9986.01
2411.79	9984.64
2412.71	9980.96
2413.64	9976.63
2414.56	9970.48
2415.49	9964.61
2416.41	9956.92
2417.33	9945.95
2418.26	9928.74
2419.18	9907.83
2420.1	9916.48
2421.03	9920.48
2421.95	9909.82
2422.87	9891.29
2423.79	9871.51
2424.72	9853.95
2425.64	9839.75
2426.56	9828.49
2427.48	9822.09
2428.41	9811.65
2429.33	9800.11
2430.25	9787.74
2431.17	9775.38
2432.09	9762.67
2433.01	9749.72
2433.93	9736.71
2434.86	9723.9
2435.78	9711.66
2436.7	9700.47
2437.62	9690.62
2438.54	9682.39
2439.46	9676.09
2440.38	9672.82
2441.3	9680.92
2442.22	9674.94
2443.14	9669.05
2444.06	9653.53
2444.98	9639.37
2445.9	9619.45
2446.82	9604.39
2447.73	9599.59
2448.65	9594.64
2449.57	9588.76
2450.49	9580.29
2451.41	9557.05
2452.33	9539.46
2453.25	9515.9
2454.17	9479.91
2455.08	9476.3
2456	9476.73
2456.92	9500.51
2457.84	9517.81
2458.75	9510.96
2459.67	9491.47
2460.59	9457.09
2461.51	9436.73
2462.42	9419.32
2463.34	9405.09
2464.26	9402.84
2465.17	9404.1
2466.09	9416.24
2467	9418.78
2467.92	9413.58
2468.84	9406.09
2469.75	9395.91
2470.67	9385.41
2471.58	9374.23
2472.5	9362.95
2473.42	9350.15
2474.33	9336.89
2475.25	9324.4
2476.16	9313.12
2477.08	9307.16
2477.99	9303.44
2478.9	9301.85
2479.82	9292.42
2480.73	9284.1
2481.65	9275.62
2482.56	9263.78
2483.47	9255.37
2484.39	9253.84
2485.3	9258.46
2486.22	9264.97
2487.13	9268.46
2488.04	9268.62
2488.96	9261.71
2489.87	9253.61
2490.78	9245.27
2491.69	9236.67
2492.61	9229.43
2493.52	9222.29
2494.43	9215.42
2495.34	9209.41
2496.25	9203.69
2497.17	9198.66
2498.08	9194.26
2498.99	9189.5
2499.9	9184.29
2500.81	9174.96
2501.72	9160.87
2502.63	9146.25
2503.55	9129.7
2504.46	9117.96
2505.37	9111.62
2506.28	9118.4
2507.19	9126.32
2508.1	9136.45
2509.01	9152.2
2509.92	9154.81
2510.83	9141.01
2511.74	9125.34
2512.65	9107.04
2513.56	9093.43
2514.47	9087.71
2515.37	9084.96
2516.28	9087.03
2517.19	9089.15
2518.1	9084.39
2519.01	9071.47
2519.92	9051.54
2520.83	9031.77
2521.73	9010.78
2522.64	8989.28
2523.55	8978.38
2524.46	8981.26
2525.37	8990.08
2526.27	8995.31
2527.18	9007.38
2528.09	9000.85
2529	8992.59
2529.9	8986.03
2530.81	8978.01
2531.72	8970.07
2532.62	8963.33
2533.53	8961.72
2534.44	8955.93
2535.34	8939.21
2536.25	8918.38
2537.15	8895.78
2538.06	8880.09
2538.96	8868.17
2539.87	8858.84
2540.78	8852.2
2541.68	8849.11
2542.59	8848.92
2543.49	8852.32
2544.4	8857.55
2545.3	8858.27
2546.21	8855.32
2547.11	8841.97
2548.01	8822.34
2548.92	8805.94
2549.82	8794.33
2550.73	8785.97
2551.63	8780.11
2552.53	8776.62
2553.44	8777.81
2554.34	8769.17
2555.24	8757.12
2556.15	8746.35
2557.05	8731.83
2557.95	8719.17
2558.86	8709.05
2559.76	8698.69
2560.66	8688.01
2561.56	8677.04
2562.46	8665.39
2563.37	8653.51
2564.27	8638.87
2565.17	8623.93
2566.07	8607.52
2566.97	8590.58
2567.88	8577.79
2568.78	8569.09
2569.68	8565.61
2570.58	8563.17
2571.48	8561.59
2572.38	8561.35
2573.28	8559.69
2574.18	8559.69
2575.08	8558.65
2575.98	8558.71
2576.88	8556.14
2577.78	8546.7
2578.68	8530.27
2579.58	8505.94
2580.48	8489.21
2581.38	8474.67
2582.28	8462.68
2583.18	8451.88
2584.08	8442.56
2584.98	8434.58
2585.88	8428.63
2586.77	8424.63
2587.67	8419.44
2588.57	8410.03
2589.47	8391.22
2590.37	8377.96
2591.27	8357.04
2592.16	8350.75
2593.06	8352.19
2593.96	8359.94
2594.86	8357.82
2595.75	8343.58
2596.65	8316.71
2597.55	8298.63
2598.45	8291.79
2599.34	8288.9
2600.24	8288.08
2601.13	8299.45
2602.03	8311.54
2602.93	8319.42
2603.82	8311.11
2604.72	8301.3
2605.62	8285.81
2606.51	8269.57
2607.41	8252.92
2608.3	8243.01
2609.2	8228.29
2610.09	8210.86
2610.99	8198.85
2611.88	8172.42
2612.78	8147.51
2613.67	8143.26
2614.57	8144.8
2615.46	8157.78
2616.36	8168.54
2617.25	8176.19
2618.14	8175.82
2619.04	8162.85
2619.93	8147.46
2620.83	8112.84
2621.72	8083.59
2622.61	8068.51
2623.5	8060.69
2624.4	8057.79
2625.29	8063.45
2626.18	8066.51
2627.08	8071.68
2627.97	8083.95
2628.86	8083.39
2629.75	8072.39
2630.65	8058.66
2631.54	8043.29
2632.43	8029.5
2633.32	8015.09
2634.21	8000.03
2635.11	7985.23
2636	7970.26
2636.89	7955.74
2637.78	7941.74
2638.67	7928.91
2639.56	7918.73
2640.45	7916.25
2641.34	7926.77
2642.23	7922.36
2643.12	7905.74
2644.01	7875.87
2644.9	7847.95
2645.79	7831.07
2646.68	7817.16
2647.57	7819.18
2648.46	7817.6
2649.35	7817.83
2650.24	7818.57
2651.13	7817.76
2652.02	7817.06
2652.91	7815.78
2653.8	7814.26
2654.69	7812.13
2655.58	7809.2
2656.46	7804.26
2657.35	7793.5
2658.24	7775.79
2659.13	7752.24
2660.02	7728.17
2660.9	7712.55
2661.79	7711.86
2662.68	7706.03
2663.57	7708.19
2664.45	7708.7
2665.34	7710.59
2666.23	7709.34
2667.11	7705.45
2668	7701.35
2668.89	7696.26
2669.77	7689.93
2670.66	7682.78
2671.55	7674.35
2672.43	7665.2
2673.32	7655.55
2674.21	7645.64
2675.09	7639.44
2675.98	7632.9
2676.86	7626.65
2677.75	7620.78
2678.63	7615.29
2679.52	7610.7
2680.4	7596.59
2681.29	7578.21
2682.17	7550.59
2683.06	7530.12
2683.94	7519.51
2684.82	7515.45
2685.71	7511.54
2686.59	7514.74
2687.48	7520.74
2688.36	7527.77
2689.24	7524.22
2690.13	7507.79
2691.01	7477.72
2691.89	7458.77
2692.78	7451.32
2693.66	7454.74
2694.54	7459.74
2695.43	7460.34
2696.31	7456.04
2697.19	7448.24
2698.07	7429.02
2698.96	7408.17
2699.84	7394.71
2700.72	7385.7
2701.6	7377.09
2702.48	7371.56
2703.36	7364.38
2704.25	7353.79
2705.13	7339.92
2706.01	7322.67
2706.89	7303.06
2707.77	7290.3
2708.65	7286.73
2709.53	7283.53
2710.41	7277.17
2711.29	7267.67
2712.17	7255.35
2713.05	7238.03
2713.93	7234.87
2714.81	7236.05
2715.69	7239.18
2716.57	7245.8
2717.45	7254.44
2718.33	7247.97
2719.21	7234.04
2720.09	7218.92
2720.97	7202.7
2721.85	7194.32
2722.73	7191.93
2723.61	7191.22
2724.48	7191.58
2725.36	7192.02
2726.24	7185.56
2727.12	7174.16
2728	7158.71
2728.88	7141.08
2729.75	7118.6
2730.63	7102.66
2731.51	7108.67
2732.39	7119.81
2733.26	7132.73
2734.14	7139.48
2735.02	7138.99
2735.89	7130.15
2736.77	7112.99
2737.65	7105.59
2738.52	7094.23
2739.4	7081.63
2740.28	7067.33
2741.15	7054.05
2742.03	7056.13
2742.9	7055.78
2743.78	7052.33
2744.65	7045.96
2745.53	7036.43
2746.41	7025.53
2747.28	7015.06
2748.16	7009.64
2749.03	7011.23
2749.91	7014.65
2750.78	7015.73
2751.66	7014.19
2752.53	7008.75
2753.4	7000.27
2754.28	6989.59
2755.15	6978.57
2756.02	6970.71
2756.9	6964.82
2757.77	6963.92
2758.65	6973.6
2759.52	6990.29
2760.39	6978.25
2761.27	6961.71
2762.14	6943.11
2763.01	6929.07
2763.88	6919.62
2764.76	6908.81
2765.63	6899.59
2766.5	6892.69
2767.37	6886.12
2768.25	6883.16
2769.12	6882.35
2769.99	6879.69
2770.86	6872.2
2771.73	6849.77
2772.61	6834.45
2773.48	6823.19
2774.35	6815.22
2775.22	6809.75
2776.09	6806.23
2776.96	6805.76
2777.83	6806.44
2778.7	6804.59
2779.57	6800.35
2780.44	6791.44
2781.31	6782.85
2782.18	6774.79
2783.05	6766.37
2783.92	6757.61
2784.79	6748.72
2785.66	6740.27
2786.53	6731.73
2787.4	6723.32
2788.27	6714.45
2789.14	6705.04
2790.01	6695.56
2790.88	6686.75
2791.75	6680.16
2792.62	6675.12
2793.48	6672.66
2794.35	6669.87
2795.22	6667.11
2796.09	6664.58
2796.96	6659.84
2797.82	6655.58
2798.69	6650.81
2799.56	6645.89
2800.43	6641.38
2801.29	6637.46
2802.16	6634.94
2803.03	6631.83
2803.9	6627.39
2804.76	6618.59
2805.63	6607.24
2806.5	6598.68
2807.36	6589.49
2808.23	6579.41
2809.09	6569.27
2809.96	6558.63
2810.83	6547.84
2811.69	6538.19
2812.56	6530.12
2813.42	6526.15
2814.29	6525.22
2815.15	6525.98
2816.02	6527.11
2816.88	6527.93
2817.75	6526.8
2818.61	6525.45
2819.48	6522.94
2820.34	6519.82
2821.21	6514.74
2822.07	6508.69
2822.94	6501.31
2823.8	6493.07
2824.66	6484.54
2825.53	6475.13
2826.39	6465.47
2827.26	6455.57
2828.12	6446.45
2828.98	6437.02
2829.85	6428.35
2830.71	6422
2831.57	6417.76
2832.43	6415.74
2833.3	6415.55
2834.16	6417.02
2835.02	6413.89
2835.88	6405.34
2836.75	6394.37
2837.61	6385.41
2838.47	6377.89
2839.33	6370.92
2840.19	6363.56
2841.06	6355.72
2841.92	6347.17
2842.78	6337.64
2843.64	6327.78
2844.5	6317.76
2845.36	6307.7
2846.22	6298.46
2847.08	6309.97
2847.94	6320.26
2848.81	6328.13
2849.67	6332.94
2850.53	6333.86
2851.39	6329.87
2852.25	6321.56
2853.11	6310.88
2853.97	6297.34
2854.82	6282.66
2855.68	6269.42
2856.54	6255.07
2857.4	6238.16
2858.26	6220.63
2859.12	6210.2
2859.98	6206.08
2860.84	6209.24
2861.7	6211.74
2862.56	6214.65
2863.41	6217.43
2864.27	6219.64
2865.13	6221.29
2865.99	6221.96
2866.85	6222.03
2867.7	6220.6
2868.56	6218.2
2869.42	6214.12
2870.28	6210.81
2871.13	6196.35
2871.99	6176.87
2872.85	6161.79
2873.7	6149.53
2874.56	6140.35
2875.42	6133.45
2876.27	6128.17
2877.13	6124.81
2877.99	6123.86
2878.84	6124.67
2879.7	6127.02
2880.56	6129.18
2881.41	6127.73
2882.27	6123.15
2883.12	6113.45
2883.98	6100.5
2884.83	6083.84
2885.69	6066.27
2886.54	6064.02
2887.4	6061.13
2888.25	6058.59
2889.11	6056.21
2889.96	6056.3
2890.82	6051.07
2891.67	6041.93
2892.52	6027.02
2893.38	6010.51
2894.23	5997.39
2895.09	5984.72
2895.94	5968.9
2896.79	5963.86
2897.65	5965.32
2898.5	5967.53
2899.35	5969.43
2900.21	5972.74
2901.06	5974.54
2901.91	5973.7
2902.76	5970.96
2903.62	5966.18
2904.47	5959.26
2905.32	5950.22
2906.17	5937.59
2907.03	5924.21
2907.88	5912.06
2908.73	5901.29
2909.58	5892.16
2910.43	5884.02
2911.28	5877.2
2912.14	5871.48
2912.99	5866.9
2913.84	5863.17
2914.69	5860.49
2915.54	5858.75
2916.39	5861.54
2917.24	5860.35
2918.09	5850.26
2918.94	5836.59
2919.79	5823.27
2920.64	5810.87
2921.49	5800.35
2922.34	5791.25
2923.19	5784.04
2924.04	5779.2
2924.89	5774.86
2925.74	5771.01
2926.59	5766.36
2927.44	5759.29
2928.29	5751.52
2929.14	5744.19
2929.98	5736.67
2930.83	5730.5
2931.68	5726.29
2932.53	5722.02
2933.38	5717.37
2934.23	5712.37
2935.07	5706.75
2935.92	5698.83
2936.77	5690.63
2937.62	5681.37
2938.47	5672.15
2939.31	5664.08
2940.16	5666.89
2941.01	5671.26
2941.85	5669.12
2942.7	5662.9
2943.55	5652.47
2944.39	5639.19
2945.24	5622.27
2946.09	5605.35
2946.93	5597.61
2947.78	5602.91
2948.63	5608.4
2949.47	5608.95
2950.32	5586.29
2951.16	5581.2
2952.01	5576.51
2952.85	5569.89
2953.7	5565.19
2954.55	5559.23
2955.39	5555.79
2956.24	5555.37
2957.08	5560.15
2957.92	5576.88
2958.77	5570.51
2959.61	5561.03
2960.46	5548.9
2961.3	5536.14
2962.15	5524.31
2962.99	5513.71
2963.83	5505.32
2964.68	5502.28
2965.52	5503.56
2966.37	5504.69
2967.21	5504.7
2968.05	5501.35
2968.9	5496.26
2969.74	5489.18
2970.58	5480.17
2971.42	5469.06
2972.27	5456.02
2973.11	5440.85
2973.95	5424.6
2974.79	5425.92
2975.64	5441.59
2976.48	5455.8
2977.32	5467.13
2978.16	5457.08
2979	5435.73
2979.85	5437.4
2980.69	5435.82
2981.53	5432.97
2982.37	5428.49
2983.21	5422.43
2984.05	5416.1
2984.89	5410.22
2985.73	5404.41
2986.57	5400.14
2987.41	5399.23
2988.25	5398.07
2989.1	5395.82
2989.94	5389.15
2990.77	5379.07
2991.62	5369.8
2992.45	5370.44
2993.29	5370.41
2994.13	5364.69
2994.97	5358.8
2995.81	5353.04
2996.65	5348.85
2997.49	5341.24
2998.33	5346.91
2999.17	5277.17
