200.833	25853
202.102	25698.4
203.371	25827.8
204.639	25932.3
205.907	25953.4
207.175	25965
208.442	25972.9
209.71	25980.3
210.977	25991
212.244	26003.7
213.511	26020.9
214.777	26039.1
216.042	26061.5
217.309	26087
218.575	26115.7
219.84	26147.9
221.106	26183.3
222.371	26221.7
223.635	26262.5
224.9	26304.9
226.165	26351.3
227.429	26399.9
228.694	26455.8
229.956	26523.3
231.22	26583.1
232.484	26646.5
233.747	26710.6
235.011	26774.4
236.272	26836.3
237.535	26892.9
238.798	26919
240.06	26956.4
241.321	27005.6
242.583	27053.5
243.845	27090.7
245.105	27122.7
246.367	27148.8
247.628	27170.5
248.888	27186.2
250.149	27193.3
251.409	27197
252.67	27199.1
253.928	27208.5
255.189	27222.7
256.447	27240.1
257.707	27260.4
258.966	27285.7
260.224	27314.1
261.483	27345.3
262.742	27375.8
263.999	27393.2
265.257	27421.1
266.514	27454
267.772	27488.6
269.028	27526
270.286	27563.8
271.543	27608.5
272.799	27651.6
274.056	27682.5
275.311	27699.4
276.568	27691.5
277.823	27694.1
279.079	27718.6
280.333	27754.9
281.589	27801.8
282.843	27862.5
284.099	27896
285.352	27916.7
286.607	27917.2
287.86	27916.2
289.114	27923.9
290.368	27944.5
291.621	27990.4
292.875	28036.2
294.127	28085.1
295.38	28130.6
296.632	28168
297.884	28201
299.137	28234.6
300.388	28263.8
301.641	28290.2
302.891	28306.8
304.142	28278.5
305.394	28241.9
306.644	28233
307.894	28240
309.146	28257
310.395	28284.5
311.645	28322.5
312.895	28377.5
314.144	28424.1
315.393	28429.3
316.642	28346.3
317.892	28315.1
319.14	28390.4
320.388	28429.5
321.637	28461.5
322.885	28478.8
324.132	28482.9
325.38	28485.5
326.628	28540.9
327.875	28585.9
329.122	28629.6
330.368	28673.9
331.614	28724.6
332.862	28751.5
334.108	28783.3
335.353	28794.6
336.599	28814.2
337.844	28833.7
339.089	28853.5
340.335	28885.1
341.58	28907.2
342.824	28921.5
344.068	28928.9
345.312	28938.7
346.556	28955.3
347.8	28971.6
349.043	28988.5
350.286	29005.8
351.53	29023.3
352.774	29040.7
354.016	29058
355.259	29074.9
356.501	29091.3
357.743	29107
358.985	29123.1
360.227	29116.4
361.468	29085.9
362.709	29057.5
363.95	29044.8
365.191	29042.1
366.432	29047.7
367.672	29058.3
368.912	29076.7
370.152	29103.4
371.392	29134.3
372.632	29138.2
373.871	29140
375.11	29141
376.348	29156
377.587	29172.4
378.825	29189.3
380.064	29207.3
381.302	29228.2
382.54	29249.7
383.778	29270.3
385.016	29288.2
386.253	29312.7
387.489	29355.5
388.726	29405.2
389.963	29451
391.199	29491.7
392.436	29523
393.672	29546.9
394.907	29562.7
396.142	29570.4
397.378	29569.9
398.614	29560.7
399.849	29543.3
401.082	29554.4
402.317	29562.3
403.552	29602.9
404.786	29631.5
406.019	29650.5
407.253	29654.2
408.487	29657.2
409.721	29651.5
410.953	29657.3
412.186	29673.5
413.419	29701.1
414.651	29739.1
415.883	29789.2
417.116	29783.5
418.347	29777
419.579	29762.9
420.811	29746.4
422.041	29736.5
423.272	29734.6
424.504	29736
425.733	29742
426.964	29750.4
428.194	29767
429.424	29747.8
430.654	29881.9
431.883	29914.4
433.113	29889.6
434.341	29871.9
435.571	29860
436.799	29851.4
438.028	29839.2
439.257	29833.8
440.484	29841.9
441.713	29860.4
442.94	29889.3
444.168	29928
445.394	29972
446.622	30007.3
447.848	30042.1
449.076	30053.9
450.301	30030.4
451.528	30013.8
452.754	30002.7
453.979	29996.6
455.205	29989.2
456.43	29959.5
457.656	29984.7
458.88	30027.7
460.106	30081.5
461.33	30112.8
462.554	30131.7
463.779	30139.9
465.002	30141.4
466.225	30144.6
467.45	30145.4
468.672	30144.3
469.895	30141.8
471.119	30137.8
472.341	30131.6
473.563	30124.1
474.786	30111.5
476.008	30089.9
477.229	30065.6
478.452	30031.9
479.673	30007.1
480.894	29997.2
482.115	30000.1
483.337	30012.6
484.557	30022.7
485.777	30029
486.997	30037.9
488.218	30043.4
489.438	30045.1
490.657	30042.5
491.876	30034.6
493.096	30013.1
494.315	29990.6
495.533	29970.7
496.752	29953.7
497.97	29943.4
499.188	29946
500.407	29952.5
501.625	29964
502.842	29984
504.059	30002.4
505.276	30000.2
506.493	30001.1
507.71	30005.2
508.926	30011.2
510.142	30023.9
511.358	30065.2
512.575	30101.6
513.791	30132.3
515.006	30158
516.222	30177.6
517.437	30192.8
518.651	30204.5
519.866	30213.4
521.081	30236.3
522.295	30253
523.509	30264.6
524.723	30272.7
525.937	30276.4
527.15	30279.3
528.363	30289
529.576	30294.4
530.789	30317.4
532.002	30336.1
533.215	30354.1
534.426	30355
535.638	30348.5
536.85	30331.3
538.061	30320.7
539.273	30307.8
540.484	30303
541.695	30309.8
542.906	30331.4
544.117	30349.1
545.327	30391.7
546.537	30416.8
547.747	30438.3
548.957	30445.8
550.167	30433.5
551.377	30400.2
552.585	30368.4
553.794	30347.4
555.003	30350.6
556.212	30357.7
557.421	30377.2
558.628	30391
559.836	30404.4
561.044	30418
562.252	30431
563.458	30439.8
564.666	30443.1
565.873	30436.6
567.08	30405.6
568.286	30335.1
569.493	30378.9
570.699	30390.1
571.904	30401.8
573.111	30409.6
574.317	30411.2
575.521	30406.8
576.727	30392
577.932	30373.1
579.136	30345.2
580.341	30320.5
581.544	30330.3
582.749	30357
583.954	30383.4
585.156	30414
586.361	30459.2
587.563	30497.7
588.767	30489.8
589.97	30480.7
591.172	30453.1
592.375	30433.6
593.577	30416.3
594.78	30419.1
595.981	30443.6
597.183	30464.2
598.384	30480.7
599.586	30488.6
600.786	30482.4
601.988	30461.5
603.188	30441.2
604.389	30440
605.589	30437.6
606.79	30436.8
607.989	30433.3
609.188	30420.3
610.389	30400.1
611.587	30376.6
612.787	30348.4
613.986	30316.2
615.184	30276.4
616.383	30258.8
617.581	30247.5
618.78	30241.5
619.977	30238.4
621.174	30234.3
622.373	30226
623.57	30201.4
624.766	30172.8
625.964	30148.8
627.16	30127.7
628.356	30108.1
629.554	30092.2
630.749	30078.8
631.945	30068.7
633.14	30060.9
634.337	30055.9
635.532	30051.5
636.726	30020.8
637.921	29958.9
639.117	29945.5
640.311	29933
641.505	29943.5
642.699	29953.7
643.892	29979.4
645.087	29985
646.28	29988.7
647.473	29978.9
648.666	29949.9
649.859	29933.9
651.051	29934.5
652.245	29941.6
653.437	29962.5
654.629	29989.5
655.821	30024.5
657.012	30037
658.204	30047.8
659.395	30056.6
660.586	30062.5
661.777	30065
662.967	30062.8
664.158	30059.5
665.349	30045.5
666.539	30021.2
667.729	29979.2
668.919	29988.5
670.109	30011
671.298	30044.5
672.487	30078.1
673.676	30117.5
674.865	30169.8
676.053	30202.9
677.242	30197.7
678.43	30186.5
679.616	30169.6
680.804	30149
681.992	30134
683.179	30103.9
684.366	30073
685.554	30042.3
686.74	30014.7
687.927	29993.5
689.114	29979.1
690.3	29992
691.486	30007.7
692.671	30026.6
693.856	30046.8
695.042	30034.3
696.227	30012.7
697.413	29985.8
698.598	29952
699.781	29911.6
700.966	29865.9
702.15	29846.8
703.334	29848.2
704.518	29869.3
705.701	29906.5
706.885	29865.1
708.068	29843.2
709.252	29823.8
710.433	29808.4
711.616	29799.7
712.799	29795.4
713.98	29793.6
715.163	29793.1
716.345	29789.7
717.527	29788.6
718.707	29787.6
719.889	29787.3
721.071	29786.8
722.25	29786.3
723.432	29784.7
724.611	29782.8
725.792	29777.7
726.972	29770.9
728.151	29761.1
729.332	29756.6
730.512	29759
731.69	29776.2
732.87	29802.9
734.048	29819.2
735.227	29839.6
736.405	29840.8
737.584	29843
738.761	29837.6
739.94	29829
741.117	29824.7
742.295	29825
743.471	29853.5
744.649	29882.4
745.825	29887.4
747.003	29890.3
748.179	29892.3
749.356	29893.7
750.531	29896.3
751.708	29898.2
752.883	29900.9
754.059	29902.9
755.234	29905.4
756.409	29904.9
757.585	29883.9
758.759	29866.1
759.934	29878.4
761.108	29885.7
762.282	29885.8
763.456	29878.7
764.63	29864.8
765.803	29844.1
766.977	29812.2
768.15	29775.3
769.323	29744.5
770.496	29719.9
771.668	29703
772.841	29692.6
774.014	29694.6
775.185	29703.5
776.357	29714
777.528	29722.8
778.701	29680.2
779.872	29661.1
781.042	29636.4
782.213	29606.7
783.383	29570.2
784.555	29529.1
785.725	29514.6
786.895	29508.5
788.064	29507.5
789.234	29494.6
790.404	29479.4
791.573	29457.5
792.742	29431.3
793.911	29401.1
795.08	29367.1
796.248	29336.2
797.416	29337.6
798.584	29338.8
799.753	29357.6
800.921	29383.2
802.088	29400.7
803.256	29411.9
804.423	29417.8
805.59	29419.5
806.756	29418.6
807.923	29413.6
809.089	29403.6
810.256	29389.7
811.422	29373.1
812.587	29355.7
813.753	29385.6
814.918	29418.1
816.084	29427.9
817.249	29415.3
818.414	29406.5
819.578	29401
820.743	29402.2
821.907	29402.3
823.072	29406
824.236	29412.6
825.399	29423.1
826.562	29437.3
827.725	29456.8
828.889	29436.6
830.052	29456.4
831.215	29484.9
832.377	29510.5
833.54	29531.5
834.701	29548.6
835.863	29552.1
837.025	29544.9
838.187	29531.2
839.349	29511.4
840.51	29484.2
841.67	29450.2
842.831	29425.6
843.992	29405.2
845.153	29424.7
846.312	29425.3
847.473	29429.6
848.633	29416
849.793	29400.2
850.951	29378.8
852.111	29353.9
853.27	29325.3
854.428	29297.7
855.588	29274.3
856.747	29255.4
857.904	29240.2
859.063	29227.6
860.221	29219.3
861.378	29214.5
862.536	29213.5
863.694	29214.8
864.85	29207.7
866.008	29189.7
867.164	29146.5
868.321	29119.1
869.478	29081.9
870.633	29063.8
871.79	29057.3
872.945	29060.1
874.101	29045.8
875.256	29021.8
876.412	28982.2
877.566	28918.4
878.722	28834.6
879.876	28864.9
881.031	28857.6
882.185	28849.3
883.34	28835.4
884.493	28831.3
885.647	28844.5
886.8	28840.6
887.954	28844.9
889.107	28833.5
890.261	28801.4
891.413	28759.2
892.565	28722.7
893.718	28680.8
894.87	28659.8
896.023	28643.7
897.174	28670.6
898.326	28688.8
899.478	28705.3
900.629	28720.7
901.779	28736.7
902.931	28753.6
904.081	28744.4
905.231	28720.2
906.383	28709.5
907.532	28702.6
908.682	28697.8
909.831	28698.3
910.982	28706.1
912.131	28719.7
913.28	28740.3
914.429	28768.1
915.578	28820.7
916.727	28725.1
917.875	28721.5
919.023	28743.5
920.171	28740
921.32	28742
922.467	28744
923.614	28751.1
924.761	28768.8
925.908	28808.6
927.055	28841.9
928.203	28873.3
929.349	28880.1
930.496	28865.6
931.642	28826.9
932.787	28787.1
933.933	28749.3
935.079	28712.8
936.224	28723.7
937.369	28752.9
938.514	28781.4
939.659	28778
940.804	28759.7
941.948	28733.5
943.092	28680
944.236	28663.4
945.38	28647.6
946.524	28650.4
947.667	28650.3
948.811	28645.9
949.954	28637.2
951.097	28612.1
952.24	28581.4
953.383	28554.2
954.525	28525.2
955.667	28490.8
956.81	28455
957.952	28419.8
959.093	28393.3
960.235	28398.6
961.376	28401.4
962.516	28412.7
963.658	28423.5
964.798	28431.4
965.939	28417.9
967.08	28398.6
968.22	28391.1
969.359	28378
970.499	28368
971.639	28350.3
972.779	28328.8
973.918	28338.4
975.056	28346.2
976.195	28352.1
977.334	28353.6
978.473	28356.3
979.61	28359.8
980.749	28349.6
981.887	28336.8
983.024	28323.2
984.162	28310.5
985.3	28300.3
986.437	28293.3
987.573	28290.3
988.711	28289.7
989.848	28292.4
990.983	28297.8
992.12	28308
993.255	28321.7
994.392	28337.2
995.528	28353.6
996.662	28355.9
997.798	28326.1
998.933	28303.6
1000.07	28279
1001.2	28294.5
1002.34	28318.8
1003.47	28337.8
1004.61	28356.5
1005.74	28363.1
1006.87	28368
1008.01	28368.7
1009.14	28365
1010.27	28356.7
1011.41	28344
1012.54	28336
1013.67	28351.8
1014.81	28331
1015.94	28305.1
1017.07	28279.7
1018.2	28258.4
1019.33	28237.4
1020.47	28217.8
1021.6	28201.2
1022.73	28186.8
1023.86	28175.5
1024.99	28167.8
1026.12	28166
1027.25	28172.9
1028.38	28178.9
1029.51	28184.8
1030.64	28187.8
1031.77	28143.9
1032.9	28112.5
1034.03	28073.3
1035.16	28028.7
1036.29	27977
1037.42	27947.4
1038.55	27910
1039.67	27919.9
1040.8	28017.2
1041.93	27943.7
1043.06	27896.9
1044.19	27854.3
1045.31	27817.9
1046.44	27797.1
1047.57	27783.4
1048.69	27788.4
1049.82	27799.6
1050.95	27816.4
1052.08	27831.5
1053.2	27747.5
1054.33	27711.6
1055.45	27686.8
1056.58	27650.7
1057.7	27637.9
1058.83	27628.5
1059.95	27619.1
1061.08	27610.2
1062.2	27597.8
1063.33	27585.4
1064.45	27572.6
1065.58	27559.1
1066.7	27545.2
1067.83	27530.1
1068.95	27516.4
1070.07	27513.3
1071.2	27525.1
1072.32	27540.4
1073.44	27549.1
1074.56	27557
1075.69	27564.2
1076.81	27570.9
1077.93	27576.5
1079.05	27581.5
1080.17	27585.2
1081.3	27588.1
1082.42	27590.7
1083.54	27593.5
1084.66	27596.9
1085.78	27593.2
1086.9	27583
1088.02	27577.4
1089.14	27576
1090.26	27583.8
1091.38	27590.8
1092.5	27596.4
1093.62	27584.4
1094.74	27578.1
1095.86	27444.2
1096.98	27542.7
1098.1	27584
1099.22	27597.1
1100.34	27576.1
1101.45	27548.8
1102.57	27524.2
1103.69	27504.8
1104.81	27490.7
1105.93	27482.5
1107.04	27478.7
1108.16	27479.2
1109.28	27488.4
1110.4	27494.5
1111.51	27455.6
1112.63	27417.9
1113.75	27383.4
1114.86	27360.6
1115.98	27348.6
1117.09	27350.5
1118.21	27337
1119.32	27327.9
1120.44	27311.5
1121.55	27290.6
1122.67	27263.2
1123.78	27259.2
1124.9	27241.8
1126.01	27218.1
1127.13	27186.1
1128.24	27143.6
1129.35	27113.2
1130.47	27084.6
1131.58	27055.7
1132.7	27025.9
1133.81	26994.3
1134.92	26962.6
1136.03	26930.2
1137.15	26898.1
1138.26	26866.1
1139.37	26837.2
1140.48	26829.8
1141.59	26823
1142.71	26814.1
1143.82	26805.8
1144.93	26763.9
1146.04	26726.8
1147.15	26691.2
1148.26	26671.4
1149.37	26661.7
1150.48	26737.5
1151.59	26722.6
1152.7	26670.1
1153.81	26557.9
1154.92	26562.3
1156.03	26572.9
1157.14	26576.4
1158.25	26575.8
1159.36	26572
1160.47	26566.7
1161.58	26557.9
1162.68	26549.3
1163.79	26542.1
1164.9	26538.9
1166.01	26538.5
1167.12	26538.9
1168.22	26538.6
1169.33	26537.8
1170.44	26537.6
1171.55	26538.1
1172.65	26540.5
1173.76	26545.9
1174.87	26564.8
1175.97	26588
1177.08	26596.3
1178.18	26602.7
1179.29	26604.5
1180.4	26604.4
1181.5	26602.8
1182.61	26599.4
1183.71	26596.6
1184.82	26596.1
1185.92	26599.1
1187.02	26628.9
1188.13	26608.1
1189.23	26590.7
1190.34	26582.5
1191.44	26578.1
1192.54	26649.7
1193.65	26692.5
1194.75	26739
1195.85	26651.4
1196.96	26597.5
1198.06	26541.6
1199.16	26467.5
1200.26	26658.7
1201.37	26600
1202.47	26609.3
1203.57	26614
1204.67	26616
1205.77	26617.8
1206.87	26612
1207.97	26590.6
1209.08	26554.5
1210.18	26502.3
1211.28	26466.6
1212.38	26444
1213.48	26416.6
1214.58	26413.5
1215.68	26419.6
1216.78	26432.1
1217.88	26439
1218.98	26440.2
1220.07	26437.6
1221.17	26431.9
1222.27	26421.8
1223.37	26409.4
1224.47	26393.4
1225.57	26375.9
1226.66	26357.8
1227.76	26344.4
1228.86	26357.6
1229.96	26365
1231.06	26381.4
1232.15	26375.1
1233.25	26338.7
1234.35	26297.4
1235.44	26254.5
1236.54	26211.2
1237.63	26169.2
1238.73	26128.5
1239.83	26118.9
1240.92	26117.5
1242.02	26124.6
1243.11	26120.2
1244.21	26102.9
1245.3	26084.5
1246.4	26067.8
1247.49	26054.5
1248.59	26043.3
1249.68	26034.1
1250.78	26028.6
1251.87	26024.6
1252.96	26023.1
1254.06	26022.6
1255.15	26021.3
1256.24	26011.7
1257.34	25968
1258.43	25970.5
1259.52	25970.9
1260.62	25975.8
1261.71	25985.5
1262.8	26000.4
1263.89	25989.9
1264.98	25979.8
1266.08	25939.9
1267.17	25923.6
1268.26	25941.5
1269.35	25989.3
1270.44	25930.7
1271.53	25921.6
1272.62	25916
1273.71	25931
1274.8	25946
1275.89	25957.1
1276.98	25964.6
1278.07	25966.3
1279.16	25965.1
1280.25	25961.3
1281.34	25955.9
1282.43	25949.8
1283.52	25943.6
1284.61	25941.3
1285.69	25939.9
1286.78	25938.7
1287.87	25936.8
1288.96	25934.9
1290.05	25934.6
1291.13	25934.5
1292.22	25934.7
1293.31	25935
1294.4	25935.6
1295.48	25952.7
1296.57	25969.1
1297.66	25983.7
1298.74	25994
1299.83	26001.1
1300.92	26003.3
1302	25997
1303.09	25983.2
1304.17	25953.2
1305.26	25939.9
1306.34	25934.7
1307.43	25919.3
1308.51	25899.3
1309.6	25876.2
1310.68	25852.7
1311.76	25824.4
1312.85	25816.3
1313.93	25947.4
1315.02	25852.5
1316.1	25824
1317.18	25795.7
1318.27	25827.3
1319.35	25845.9
1320.43	25858.5
1321.52	25859.1
1322.6	25847.3
1323.68	25824.2
1324.76	25790.2
1325.85	25768.6
1326.93	25751
1328.01	25740.7
1329.09	25743.5
1330.17	25758
1331.25	25787.6
1332.33	25669.2
1333.41	25648.3
1334.49	25652
1335.58	25652.6
1336.65	25652.8
1337.74	25646.3
1338.82	25635.6
1339.89	25628.9
1340.97	25623.4
1342.05	25619.8
1343.13	25615.5
1344.21	25613
1345.29	25609.3
1346.37	25603.7
1347.45	25591.9
1348.53	25575.4
1349.6	25554.3
1350.68	25533.6
1351.76	25512.1
1352.84	25488.6
1353.92	25471.2
1354.99	25468.5
1356.07	25471.2
1357.15	25480.1
1358.22	25490.9
1359.3	25499.9
1360.38	25506.9
1361.45	25512.7
1362.53	25515.9
1363.61	25515.5
1364.68	25511.9
1365.76	25504.8
1366.83	25494.1
1367.91	25480.3
1368.98	25468.3
1370.06	25485.5
1371.13	25495.3
1372.21	25505.1
1373.28	25514.2
1374.35	25517.6
1375.43	25505.7
1376.5	25489.4
1377.58	25471.7
1378.65	25453.3
1379.72	25447.1
1380.8	25440.6
1381.87	25440.9
1382.94	25451.2
1384.01	25462.4
1385.09	25459.7
1386.16	25439
1387.23	25402.3
1388.3	25298.3
1389.38	25257.1
1390.45	25288.6
1391.52	25304.8
1392.59	25309
1393.66	25310.5
1393.92	25309.6
1395	25312.4
1396.07	25310.1
1397.15	25305.6
1398.22	25298
1399.3	25288
1400.38	25273.5
1401.45	25256
1402.53	25237.4
1403.6	25222.2
1404.68	25212.2
1405.75	25203
1406.82	25196.3
1407.9	25191.4
1408.97	25189.1
1410.05	25188.5
1411.12	25190
1412.19	25188.3
1413.27	25170.1
1414.34	25144.6
1415.41	25104.8
1416.49	25082.1
1417.56	25088
1418.63	25095.4
1419.7	25123.5
1420.78	25133.3
1421.85	25125
1422.92	25103.7
1423.99	25076.9
1425.06	25056.6
1426.14	25033.1
1427.21	25012.4
1428.28	24994
1429.35	24977.3
1430.42	24963.6
1431.49	24953.5
1432.56	24945.4
1433.63	24939.5
1434.7	24935.5
1435.77	24933.2
1436.84	24931.7
1437.91	24933.9
1438.98	24936.7
1440.05	24939.5
1441.12	24941
1442.18	24937.8
1443.25	24938.5
1444.32	24938.2
1445.39	24937.2
1446.46	24933.8
1447.53	24916.1
1448.59	24896.5
1449.66	24877.3
1450.73	24868.1
1451.8	24859.8
1452.86	24854.4
1453.93	24851.6
1455	24852.1
1456.06	24855.3
1457.13	24862.7
1458.2	24861.6
1459.26	24841.9
1460.33	24828.6
1461.39	24808.3
1462.46	24797.9
1463.52	24796.6
1464.59	24798.4
1465.65	24785.6
1466.72	24766.7
1467.78	24740.7
1468.85	24723.4
1469.91	24720.4
1470.98	24719
1472.04	24719.4
1473.1	24721.4
1474.17	24726
1475.23	24736
1476.3	24746
1477.36	24756.8
1478.42	24764.3
1479.48	24766.8
1480.55	24762.9
1481.61	24755.2
1482.67	24746.1
1483.73	24741.4
1484.8	24734.9
1485.86	24727.4
1486.92	24718.4
1487.98	24709.4
1489.04	24695.5
1490.1	24676.1
1491.17	24659.1
1492.23	24642.7
1493.29	24623.3
1494.35	24612.3
1495.41	24612.1
1496.47	24614.4
1497.53	24613.7
1498.59	24608.6
1499.65	24599.6
1500.71	24582.2
1501.77	24562.6
1502.83	24535.9
1503.88	24508.8
1504.94	24483
1506	24459.6
1507.06	24439.3
1508.12	24420.8
1509.18	24403.7
1510.23	24388.4
1511.29	24374.7
1512.35	24363.9
1513.41	24356.4
1514.47	24357
1515.52	24362.5
1516.58	24368.1
1517.64	24370.7
1518.69	24370.3
1519.75	24356.6
1520.81	24309.3
1521.86	24272.6
1522.92	24256.9
1523.97	24253.1
1525.03	24254.1
1526.08	24261.4
1527.14	24279.2
1528.2	24289.6
1529.25	24296.2
1530.31	24271
1531.36	24245.4
1532.42	24203.6
1533.47	24197
1534.52	24187.2
1535.58	24165.1
1536.63	24135.4
1537.69	24106.7
1538.74	24083.1
1539.79	24064.7
1540.84	24062.7
1541.9	24092.3
1542.95	24112.5
1544	24131.4
1545.06	24140.6
1546.11	24142.1
1547.16	24113.7
1548.21	24082.8
1549.27	24053.6
1550.32	24035.6
1551.37	24025.9
1552.42	24032.6
1553.47	24038.8
1554.52	24073.1
1555.57	24073
1556.62	24070
1557.67	24051.4
1558.72	24039.1
1559.77	24028.1
1560.82	24022.5
1561.87	24032.1
1562.92	24045.4
1563.97	24051.8
1565.02	24055
1566.07	24054.9
1567.12	24048.8
1568.17	24039.1
1569.22	24024.2
1570.27	24005.5
1571.32	23983.5
1572.36	23959.6
1573.41	23953.4
1574.46	23946
1575.51	23956.6
1576.56	23968.5
1577.6	23991.8
1578.65	24000.6
1579.7	23996.8
1580.74	23983.9
1581.79	23944.8
1582.84	23901.5
1583.88	23887.8
1584.93	23879.9
1585.98	23880.9
1587.02	23895.3
1588.07	23903.4
1589.11	23901.6
1590.16	23878.1
1591.2	23862
1592.25	23846.4
1593.29	23829.2
1594.34	23811.2
1595.38	23793.1
1596.43	23775.1
1597.47	23772.7
1598.52	23766.1
1599.56	23756.9
1600.6	23745.7
1601.65	23729.3
1602.69	23711.6
1603.73	23680.2
1604.78	23648.1
1605.82	23618.9
1606.86	23591.2
1607.91	23573.8
1608.95	23559
1609.99	23551.8
1611.03	23549.1
1612.08	23551.6
1613.12	23556.7
1614.16	23552.1
1615.2	23533.5
1616.24	23516.2
1617.28	23489
1618.32	23454
1619.36	23416.7
1620.41	23380.2
1621.45	23348.7
1622.49	23330.9
1623.53	23316.5
1624.57	23305.7
1625.61	23304.2
1626.65	23310.8
1627.69	23316.3
1628.73	23313.7
1629.76	23279.4
1630.8	23251
1631.84	23222.3
1632.88	23194.6
1633.92	23173
1634.96	23148
1636	23124.6
1637.03	23102.7
1638.07	23090.2
1639.11	23085
1640.15	23082.6
1641.19	23088.4
1642.22	23081.9
1643.26	23075.9
1644.3	23062
1645.33	23040.7
1646.37	23018
1647.41	22996.2
1648.44	22973.9
1649.48	22964.1
1650.52	22953.8
1651.55	22944.5
1652.59	22936
1653.62	22927.7
1654.66	22918.9
1655.69	22907.9
1656.73	22898.3
1657.76	22889.5
1658.8	22881.5
1659.83	22873.7
1660.87	22867.5
1661.9	22860.8
1662.93	22851.3
1663.97	22838.1
1665	22813.9
1666.04	22785.1
1667.07	22763.7
1668.1	22755.1
1669.14	22752.7
1670.17	22781.6
1671.2	22781.3
1672.23	22782.7
1673.27	22781.8
1674.3	22762.7
1675.33	22745.7
1676.36	22728.8
1677.39	22756.9
1678.43	22773.8
1679.46	22777.3
1680.49	22769.3
1681.52	22743.2
1682.55	22708.3
1683.58	22675.9
1684.61	22657.6
1685.64	22638.7
1686.67	22626.2
1687.7	22618.9
1688.73	22614.2
1689.76	22610.4
1690.79	22606
1691.82	22599.8
1692.85	22589
1693.88	22578.8
1694.91	22567.1
1695.94	22554.7
1696.97	22539.7
1698	22527.5
1699.02	22520.8
1700.05	22519.8
1701.08	22530.7
1702.11	22531.3
1703.14	22526
1704.16	22517.5
1705.19	22505.2
1706.22	22488.5
1707.25	22466.7
1708.27	22440.6
1709.3	22410.2
1710.33	22378.4
1711.35	22353.5
1712.38	22336.3
1713.41	22321.5
1714.43	22309.9
1715.46	22302.1
1716.48	22292.3
1717.51	22280.8
1718.53	22272.1
1719.56	22263
1720.58	22253.5
1721.61	22229.2
1722.63	22207.1
1723.66	22183.5
1724.68	22160.7
1725.71	22140
1726.73	22119.2
1727.75	22099.5
1728.78	22080.3
1729.8	22062.1
1730.83	22044.7
1731.85	22030.1
1732.87	22020.9
1733.89	22022.1
1734.92	22021
1735.94	22018.5
1736.96	22013.3
1737.98	22008.2
1739.01	21999.6
1740.03	21968.7
1741.05	21933.8
1742.07	21883.7
1743.09	21831.3
1744.12	21806.4
1745.14	21806.7
1746.16	21823.9
1747.18	21825.8
1748.2	21828
1749.22	21825.3
1750.24	21816.4
1751.26	21802.8
1752.28	21785.7
1753.3	21768.4
1754.32	21754.1
1755.34	21753.6
1756.36	21736
1757.38	21716.4
1758.4	21696.9
1759.42	21679.4
1760.44	21661.3
1761.45	21653.9
1762.47	21650.3
1763.49	21649.7
1764.51	21648.2
1765.53	21646.4
1766.55	21640.3
1767.56	21630.9
1768.58	21620.6
1769.6	21608.4
1770.61	21594
1771.63	21578
1772.65	21563.8
1773.67	21560.2
1774.68	21572.1
1775.7	21578.1
1776.72	21573.3
1777.73	21562.7
1778.75	21535.2
1779.76	21504.8
1780.78	21453.6
1781.79	21411.4
1782.81	21389.9
1783.83	21378.4
1784.84	21366.7
1785.85	21354.7
1786.87	21344.6
1787.88	21335.5
1788.9	21327.2
1789.91	21319.2
1790.93	21312.1
1791.94	21305.3
1792.95	21300.2
1793.97	21296
1794.98	21291.1
1796	21284.8
1797.01	21264.5
1798.02	21241.4
1799.03	21212.8
1800.05	21179.7
1801.06	21143.8
1802.07	21102.8
1803.08	21096.5
1804.1	21100.8
1805.11	21118
1806.12	21139.1
1807.13	21141.3
1808.14	21128
1809.15	21094.2
1810.17	21075.9
1811.18	21055.3
1812.19	21034.6
1813.2	21019.8
1814.21	21005.3
1815.22	20974.1
1816.23	20939.3
1817.24	20909
1818.25	20884.6
1819.26	20871
1820.27	20865.3
1821.28	20854
1822.29	20839.9
1823.3	20823.1
1824.3	20803.7
1825.31	20782
1826.32	20758.5
1827.33	20732.6
1828.34	20706.4
1829.35	20690.2
1830.35	20709.3
1831.36	20698.5
1832.37	20667.9
1833.38	20639.4
1834.38	20569.1
1835.39	20532.2
1836.4	20541.4
1837.41	20537.2
1838.41	20530.7
1839.42	20522.5
1840.43	20511.3
1841.43	20496.3
1842.44	20477.4
1843.44	20472.3
1844.45	20473.8
1845.46	20458.5
1846.46	20440.1
1847.47	20411.3
1848.47	20388.2
1849.48	20358.4
1850.48	20338.5
1851.49	20321.6
1852.49	20326.4
1853.49	20328.6
1854.5	20328.3
1855.5	20323.8
1856.51	20317.1
1857.51	20307.2
1858.51	20294.6
1859.52	20279
1860.52	20260.7
1861.52	20239.8
1862.53	20216.9
1863.53	20192.6
1864.53	20174
1865.54	20176.6
1866.54	20183
1867.54	20185.9
1868.54	20173.2
1869.54	20162.3
1870.55	20140.2
1871.55	20111
1872.55	20069.3
1873.55	20010.8
1874.55	20020.2
1875.55	20038.5
1876.55	20022.4
1877.55	20007
1878.55	19996.8
1879.55	19990.9
1880.56	19987.7
1881.55	19987
1882.56	19979.1
1883.55	19887.3
1884.55	19844.2
1885.55	19805.1
1886.55	19785.8
1887.55	19780.4
1888.55	19790.3
1889.55	19790.1
1890.55	19785
1891.55	19782.8
1892.55	19785.3
1893.54	19786.6
1894.54	19786.8
1895.54	19782.9
1896.54	19775.3
1897.54	19758.1
1898.53	19737.9
1899.53	19713.7
1900.53	19687.6
1901.52	19658.1
1902.52	19628.7
1903.52	19603.5
1904.51	19582.7
1905.51	19565.8
1906.51	19551.5
1907.5	19541.8
1908.5	19535.1
1909.49	19532.1
1910.49	19530
1911.49	19522.2
1912.48	19507.5
1913.48	19485.6
1914.47	19463.6
1915.46	19443.1
1916.46	19420.4
1917.45	19396.5
1918.45	19370.9
1919.44	19344.3
1920.44	19315.7
1921.43	19287.2
1922.43	19264.8
1923.42	19244.3
1924.41	19232.9
1925.41	19212
1926.4	19181.2
1927.39	19161.7
1928.38	19149.9
1929.38	19156.1
1930.37	19151.3
1931.36	19142.8
1932.35	19139.6
1933.35	19143.1
1934.34	19130.3
1935.33	19102.3
1936.32	19074.4
1937.31	19047.5
1938.3	19024.1
1939.29	19012.8
1940.29	18997.3
1941.28	18989.2
1942.27	18981
1943.26	18967
1944.25	18951.2
1945.24	18935.5
1946.23	18919.5
1947.22	18903.6
1948.21	18888.1
1949.2	18877.3
1950.19	18866.2
1951.18	18850.5
1952.17	18818.6
1953.16	18790.2
1954.14	18752.2
1955.13	18717.8
1956.12	18689.1
1957.11	18671
1958.1	18658.5
1959.09	18661.8
1960.07	18661.5
1961.06	18673.8
1962.05	18683.9
1963.04	18681.9
1964.02	18668.7
1965.01	18653.2
1966	18616.3
1966.99	18583.7
1967.97	18557.7
1968.96	18536
1969.95	18523.6
1970.93	18518.7
1971.92	18513.6
1972.9	18502.9
1973.89	18488.7
1974.88	18470.5
1975.86	18450.7
1976.85	18433.3
1977.83	18416
1978.82	18399
1979.8	18382.9
1980.79	18367.7
1981.77	18354
1982.76	18345.8
1983.74	18348.4
1984.72	18345.4
1985.71	18339.5
1986.69	18299.4
1987.67	18265.7
1988.66	18255.1
1989.64	18247
1990.62	18241.3
1991.61	18230.9
1992.59	18219.1
1993.57	18205.8
1994.56	18187.4
1995.54	18167.9
1996.52	18147.3
1997.5	18126
1998.49	18107.2
1999.47	18087.8
2000.45	18068.5
2001.43	18050
2002.41	18033.9
2003.39	18020.7
2004.38	18015.6
2005.36	18012.5
2006.34	18008.8
2007.32	18004.4
2008.3	17993.1
2009.28	17978.7
2010.26	17962
2011.24	17942
2012.22	17919
2013.2	17893
2014.18	17865
2015.16	17839
2016.14	17816.5
2017.12	17797.8
2018.1	17783
2019.07	17772.3
2020.05	17765.5
2021.03	17762.9
2022.01	17764.4
2022.99	17759.7
2023.97	17736.5
2024.95	17719.5
2025.92	17699.2
2026.9	17676.2
2027.88	17648.8
2028.86	17631.7
2029.83	17623.9
2030.81	17618.8
2031.79	17607.4
2032.76	17590.5
2033.74	17574.2
2034.72	17554.2
2035.69	17532.6
2036.67	17510.4
2037.65	17487.9
2038.62	17456.5
2039.6	17446.2
2040.57	17437.5
2041.55	17442.9
2042.52	17456.7
2043.5	17458.4
2044.47	17449.7
2045.45	17399.1
2046.42	17364.8
2047.4	17322.2
2048.37	17267.6
2049.35	17235.1
2050.32	17210.7
2051.29	17208
2052.27	17216.5
2053.24	17212.8
2054.21	17198.5
2055.19	17169.3
2056.16	17150.3
2057.13	17132.5
2058.11	17115.2
2059.08	17101.3
2060.05	17093
2061.02	17085.5
2062	17078.4
2062.97	17068.4
2063.94	17050.8
2064.91	17034
2065.89	17016.8
2066.86	16999.2
2067.83	16981
2068.8	16962.5
2069.77	16946.7
2070.74	16930
2071.71	16912.8
2072.68	16895.1
2073.65	16876.5
2074.62	16859.5
2075.59	16819.8
2076.56	16797.2
2077.53	16777.6
2078.5	16754.7
2079.47	16740.7
2080.44	16737.7
2081.41	16738.3
2082.38	16722.9
2083.35	16702.6
2084.32	16681.6
2085.29	16660.9
2086.26	16638.9
2087.23	16619.7
2088.19	16598.2
2089.16	16593.5
2090.13	16580.8
2091.1	16571.3
2092.07	16551.6
2093.03	16540.1
2094	16533.3
2094.97	16528.2
2095.94	16525.9
2096.9	16518.7
2097.87	16507.4
2098.84	16492.2
2099.8	16475.3
2100.77	16452.7
2101.74	16425.8
2102.7	16398.6
2103.67	16370.8
2104.63	16350.8
2105.6	16333.1
2106.56	16317.7
2107.53	16304.7
2108.49	16294.1
2109.46	16285.8
2110.42	16280
2111.39	16276.4
2112.35	16269.8
2113.32	16236.4
2114.28	16220.3
2115.25	16206.6
2116.21	16189.6
2117.17	16170.8
2118.14	16152.9
2119.1	16135.1
2120.07	16117.1
2121.03	16099.6
2121.99	16076.2
2122.96	16063
2123.92	16075.5
2124.88	16083.3
2125.84	16077.6
2126.81	16059.9
2127.77	16011.8
2128.73	15977.7
2129.69	15948.4
2130.65	15951.6
2131.62	15931.2
2132.58	15909.8
2133.54	15890.5
2134.5	15873.3
2135.46	15858.3
2136.42	15844.9
2137.38	15835.4
2138.34	15842
2139.3	15843.3
2140.26	15837.6
2141.22	15824
2142.18	15796
2143.14	15756.6
2144.1	15719
2145.06	15684.6
2146.02	15652
2146.98	15630.1
2147.94	15624.2
2148.9	15620.8
2149.86	15615.1
2150.82	15607.4
2151.78	15599.8
2152.74	15591.1
2153.69	15582.2
2154.65	15572.1
2155.61	15560.4
2156.57	15546.3
2157.53	15506.9
2158.48	15478.6
2159.44	15447.3
2160.4	15423.8
2161.36	15405.3
2162.31	15391.6
2163.27	15381.4
2164.23	15388.9
2165.18	15386
2166.14	15382.8
2167.1	15375.7
2168.05	15364.7
2169.01	15334.4
2169.96	15289.8
2170.92	15238
2171.88	15193
2172.83	15168.4
2173.79	15157.2
2174.74	15133.8
2175.7	15111.8
2176.65	15090.2
2177.6	15068.8
2178.56	15045.3
2179.51	15022
2180.47	14999.2
2181.42	14977.3
2182.38	14960.8
2183.33	14951.8
2184.28	14926.2
2185.24	14897.8
2186.19	14871
2187.14	14824.6
2188.1	14801.5
2189.05	14801.3
2190	14807.5
2190.96	14820.5
2191.91	14842.6
2192.86	14829
2193.81	14802.8
2194.76	14754.2
2195.72	14723.2
2196.67	14702.4
2197.62	14680.7
2198.57	14664.1
2199.52	14648.9
2200.47	14635.8
2201.43	14625.5
2202.38	14617.5
2203.33	14613.4
2204.28	14612.3
2205.23	14615.6
2206.18	14615.2
2207.13	14602.9
2208.08	14588.2
2209.03	14571.1
2209.98	14548.7
2210.93	14523.3
2211.88	14496.3
2212.83	14469
2213.78	14451.2
2214.73	14431.5
2215.67	14420.6
2216.62	14409.2
2217.57	14399
2218.52	14389.6
2219.47	14377.6
2220.42	14364
2221.37	14350.2
2222.31	14340.1
2223.26	14331.1
2224.21	14324
2225.16	14317.8
2226.1	14313.3
2227.05	14310.5
2228	14308.7
2228.94	14311.6
2229.89	14314.1
2230.84	14296.7
2231.78	14281.3
2232.73	14262.2
2233.68	14231.7
2234.62	14230.9
2235.57	14221.1
2236.51	14217
2237.46	14208.9
2238.41	14199.3
2239.35	14189
2240.3	14176
2241.24	14162.6
2242.19	14150.4
2243.13	14139.5
2244.07	14134.9
2245.02	14130.7
2245.96	14127.1
2246.91	14123.9
2247.85	14120.7
2248.8	14117.1
2249.74	14112.2
2250.68	14108.4
2251.63	14100
2252.57	14085.8
2253.51	14067.9
2254.46	14049.5
2255.4	14040
2256.34	14031.6
2257.28	14027.5
2258.23	14027.2
2259.17	14032.6
2260.11	14039.5
2261.05	14041.8
2262	14032.7
2262.94	14017.2
2263.88	13998.1
2264.82	13980.9
2265.76	13964.9
2266.7	13957.1
2267.64	13954.7
2268.58	13960.3
2269.53	13964.7
2270.47	13962.3
2271.41	13944.7
2272.35	13929.4
2273.29	13918
2274.23	13910.8
2275.17	13909
2276.11	13920
2277.05	13915.8
2277.99	13909.3
2278.93	13886.5
2279.86	13868.4
2280.8	13851.2
2281.74	13848.9
2282.68	13851.8
2283.62	13853.5
2284.56	13855.5
2285.5	13856.6
2286.44	13853.4
2287.37	13846.2
2288.31	13837.9
2289.25	13829.9
2290.19	13815.4
2291.12	13799
2292.06	13790.1
2293	13783.5
2293.94	13788.3
2294.87	13794.7
2295.81	13798.7
2296.75	13801.1
2297.68	13800.2
2298.62	13794.8
2299.55	13786.3
2300.49	13766
2301.43	13737.2
2302.36	13718.9
2303.3	13710.5
2304.23	13708.2
2305.17	13704.1
2306.1	13694
2307.04	13682.3
2307.98	13670.7
2308.91	13658.9
2309.84	13647
2310.78	13635.5
2311.71	13625.4
2312.65	13619.6
2313.58	13614.8
2314.52	13607.2
2315.45	13591.8
2316.38	13572.8
2317.32	13544.9
2317.72	13529.6
2318.66	13505.6
2319.6	13494
2320.54	13479.7
2321.48	13471
2322.41	13473.7
2323.35	13455.6
2324.29	13442.9
2325.23	13436
2326.16	13434
2327.1	13437.7
2328.04	13443.1
2328.97	13439.6
2329.91	13430.3
2330.85	13393.9
2331.78	13366.2
2332.72	13338.8
2333.66	13315.7
2334.59	13301.6
2335.53	13291.5
2336.46	13289.5
2337.4	13291.1
2338.33	13295.1
2339.27	13299
2340.2	13273.9
2341.14	13251.3
2342.07	13228.1
2343.01	13207.7
2343.94	13210.1
2344.88	13203.4
2345.81	13198.4
2346.75	13193.4
2347.68	13187
2348.61	13176
2349.55	13158.9
2350.48	13133.2
2351.41	13111.9
2352.35	13094.4
2353.28	13079.3
2354.21	13079.6
2355.15	13095.4
2356.08	13100.2
2357.01	13115.8
2357.94	13108.1
2358.88	13083.7
2359.81	13064.5
2360.74	13054.2
2361.67	13051
2362.6	13041.7
2363.54	13034.3
2364.47	13027.4
2365.4	13021.2
2366.33	13015.3
2367.26	13009.1
2368.19	13008
2369.12	13013.2
2370.05	13013.7
2370.98	13010.2
2371.91	13001.6
2372.84	12990.9
2373.77	12967.7
2374.7	12941.1
2375.63	12918
2376.56	12897.9
2377.49	12887.4
2378.42	12879.3
2379.35	12875.2
2380.28	12874.9
2381.21	12879
2382.14	12885.3
2383.07	12890
2384	12886.8
2384.92	12881.4
2385.85	12871.5
2386.78	12858.1
2387.71	12841.5
2388.64	12823.2
2389.56	12805.5
2390.49	12790.1
2391.42	12785.9
2392.35	12779.3
2393.27	12775.2
2394.2	12773.3
2395.13	12773.3
2396.05	12774.9
2396.98	12738.8
2397.91	12715.1
2398.83	12700.1
2399.76	12703.3
2400.69	12703.6
2401.61	12700.7
2402.54	12696.3
2403.46	12694.1
2404.39	12684.4
2405.31	12671.4
2406.24	12655.4
2407.17	12636.7
2408.09	12611.2
2409.01	12588.3
2409.94	12569.6
2410.86	12550.1
2411.79	12530.2
2412.71	12515.6
2413.64	12506.9
2414.56	12505.5
2415.49	12516.7
2416.41	12517.3
2417.33	12516.9
2418.26	12518.2
2419.18	12503.1
2420.1	12499.3
2421.03	12494.6
2421.95	12489.4
2422.87	12484.4
2423.79	12480.4
2424.72	12476.9
2425.64	12464
2426.56	12444.8
2427.48	12426.4
2428.41	12405.1
2429.33	12380.1
2430.25	12353
2431.17	12329.3
2432.09	12307.5
2433.01	12287.4
2433.93	12277.6
2434.86	12267.3
2435.78	12268.9
2436.7	12269.2
2437.62	12261.6
2438.54	12247.4
2439.46	12225.1
2440.38	12206.9
2441.3	12190.9
2442.22	12177.1
2443.14	12165.7
2444.06	12161.5
2444.98	12151.6
2445.9	12141.2
2446.82	12129
2447.73	12114.8
2448.65	12098.8
2449.57	12081.5
2450.49	12063.3
2451.41	12045.4
2452.33	12027.5
2453.25	12026.6
2454.17	12033.7
2455.08	12043.4
2456	12035.5
2456.92	12009.2
2457.84	11980.6
2458.75	11953.5
2459.67	11933.3
2460.59	11921.6
2461.51	11911.1
2462.42	11901.8
2463.34	11892.7
2464.26	11883.6
2465.17	11871.8
2466.09	11859.8
2467	11847.4
2467.92	11833.5
2468.84	11818.9
2469.75	11804
2470.67	11791
2471.58	11785.8
2472.5	11785.4
2473.42	11785.7
2474.33	11783.8
2475.25	11780.6
2476.16	11772.5
2477.08	11764.3
2477.99	11739.6
2478.9	11719.7
2479.82	11700.4
2480.73	11684.4
2481.65	11668.1
2482.56	11669.6
2483.47	11677.3
2484.39	11683
2485.3	11690
2486.22	11692
2487.13	11677.4
2488.04	11662.7
2488.96	11648.8
2489.87	11632.4
2490.78	11619.2
2491.69	11615.2
2492.61	11618.5
2493.52	11624.4
2494.43	11598.9
2495.34	11580.9
2496.25	11568.8
2497.17	11563.6
2498.08	11576.1
2498.99	11572.7
2499.9	11554.4
2500.81	11540.4
2501.72	11529.3
2502.63	11520
2503.55	11512.9
2504.46	11502.4
2505.37	11512.3
2506.28	11530
2507.19	11536.4
2508.1	11535.4
2509.01	11528.2
2509.92	11516.9
2510.83	11497.5
2511.74	11480.9
2512.65	11467.3
2513.56	11447.4
2514.47	11445.2
2515.37	11452.4
2516.28	11458.4
2517.19	11468.3
2518.1	11478.8
2519.01	11472.3
2519.92	11457.9
2520.83	11438.7
2521.73	11414.7
2522.64	11395.5
2523.55	11379.9
2524.46	11366.4
2525.37	11354.4
2526.27	11344.7
2527.18	11336.9
2528.09	11331.3
2529	11327.5
2529.9	11325.9
2530.81	11325.2
2531.72	11318.5
2532.62	11303.8
2533.53	11288.4
2534.44	11271.2
2535.34	11252.4
2536.25	11232.7
2537.15	11221.5
2538.06	11212.2
2538.96	11204.1
2539.87	11197.2
2540.78	11191.4
2541.68	11186.6
2542.59	11179.2
2543.49	11172.9
2544.4	11162.4
2545.3	11152.5
2546.21	11145.6
2547.11	11143.2
2548.01	11139.7
2548.92	11131.9
2549.82	11122.5
2550.73	11110.4
2551.63	11095.3
2552.53	11077.3
2553.44	11057
2554.34	11033.8
2555.24	11011
2556.15	10999.2
2557.05	10998
2557.95	10991.8
2558.86	10984.6
2559.76	10976.4
2560.66	10966.3
2561.56	10956.6
2562.46	10946.8
2563.37	10937.1
2564.27	10927.2
2565.17	10917.6
2566.07	10907.9
2566.97	10898.1
2567.88	10888.1
2568.78	10878.1
2569.68	10867.8
2570.58	10856.8
2571.48	10844.4
2572.38	10819.8
2573.28	10801.2
2574.18	10781.9
2575.08	10771.9
2575.98	10764.8
2576.88	10757.1
2577.78	10751.3
2578.68	10734.3
2579.58	10717.3
2580.48	10696.1
2581.38	10673.9
2582.28	10659.3
2583.18	10690.9
2584.08	10703.2
2584.98	10655
2585.88	10646.5
2586.77	10642.3
2587.67	10637.3
2588.57	10630.7
2589.47	10622.8
2590.37	10613.5
2591.27	10603.3
2592.16	10591.6
2593.06	10578.1
2593.96	10562
2594.86	10543.9
2595.75	10524.2
2596.65	10505.1
2597.55	10498.7
2598.45	10496.8
2599.34	10495.7
2600.24	10492.1
2601.13	10461.6
2602.03	10436.6
2602.93	10449.4
2603.82	10447.8
2604.72	10443.6
2605.62	10436.4
2606.51	10427.4
2607.41	10418
2608.3	10407.3
2609.2	10395.5
2610.09	10383
2610.99	10370
2611.88	10357.3
2612.78	10356.4
2613.67	10352.5
2614.57	10359
2615.46	10354.8
2616.36	10355.2
2617.25	10344.7
2618.14	10321.9
2619.04	10297.7
2619.93	10278.5
2620.83	10262.3
2621.72	10249.1
2622.61	10240.7
2623.5	10243.9
2624.4	10239.8
2625.29	10233.8
2626.18	10183.4
2627.08	10210
2627.97	10231.4
2628.86	10228.3
2629.75	10210.5
2630.65	10195
2631.54	10177.3
2632.43	10159.2
2633.32	10139.8
2634.21	10119.2
2635.11	10097.8
2636	10075.7
2636.89	10053.3
2637.78	10030.9
2638.67	10013.7
2639.56	10006.9
2640.45	10003.6
2641.34	10002
2642.23	9998.04
2643.12	9995.24
2644.01	9988.29
2644.9	9973.87
2645.79	9959.95
2646.68	9945
2647.57	9931.76
2648.46	9918.91
2649.35	9906.21
2650.24	9894.03
2651.13	9882.18
2652.02	9870.79
2652.91	9859.89
2653.8	9849.57
2654.69	9842.4
2655.58	9837.11
2656.46	9839.58
2657.35	9840
2658.24	9839.37
2659.13	9835.72
2660.02	9817.8
2660.9	9794.73
2661.79	9773.56
2662.68	9753.77
2663.57	9732.06
2664.45	9729.17
2665.34	9734.68
2666.23	9737.31
2667.11	9736.49
2668	9731.92
2668.89	9725.11
2669.77	9716.21
2670.66	9705.76
2671.55	9693.54
2672.43	9679.77
2673.32	9664.76
2674.21	9648.75
2675.09	9633.82
2675.98	9621.97
2676.86	9614.51
2677.75	9614.85
2678.63	9619.72
2679.52	9617.29
2680.4	9608.98
2681.29	9593.8
2682.17	9574.38
2683.06	9554.11
2683.94	9532.66
2684.82	9512.73
2685.71	9494.94
2686.59	9478.62
2687.48	9462.92
2688.36	9449.04
2689.24	9438.49
2690.13	9435.54
2691.01	9444.99
2691.89	9447.87
2692.78	9442.27
2693.66	9432.37
2694.54	9420.21
2695.43	9401.16
2696.31	9382.18
2697.19	9363.82
2698.07	9351.36
2698.96	9342.26
2699.84	9337.02
2700.72	9334.6
2701.6	9336.41
2702.48	9342.36
2703.36	9355.05
2704.25	9339.03
2705.13	9312.24
2706.01	9274.59
2706.89	9257.6
2707.77	9232.97
2708.65	9285.66
2709.53	9267.1
2710.41	9238.14
2711.29	9203.08
2712.17	9185.04
2713.05	9169.95
2713.93	9159.14
2714.81	9154.99
2715.69	9162.03
2716.57	9180.76
2717.45	9176.86
2718.33	9158.61
2719.21	9140.67
2720.09	9125.34
2720.97	9112.25
2721.85	9101.14
2722.73	9092.29
2723.61	9089.35
2724.48	9091
2725.36	9092.72
2726.24	9093.99
2727.12	9095.1
2728	9082.88
2728.88	9072.24
2729.75	9053.53
2730.63	9028.32
2731.51	9005.06
2732.39	8988.69
2733.26	8998.74
2734.14	9014.86
2735.02	9037.97
2735.89	9045.38
2736.77	9042.77
2737.65	9036.11
2738.52	9024.65
2739.4	9008.52
2740.28	8988.22
2741.15	8970.41
2742.03	8953.89
2742.9	8938.34
2743.78	8924.32
2744.65	8912.54
2745.53	8901.94
2746.41	8892.31
2747.28	8883.96
2748.16	8876.9
2749.03	8870.84
2749.91	8866.12
2750.78	8862.72
2751.66	8862.7
2752.53	8865.45
2753.4	8871.16
2754.28	8870.07
2755.15	8847.35
2756.02	8823.32
2756.9	8802.89
2757.77	8787.71
2758.65	8774.39
2759.52	8791.96
2760.39	8784.12
2761.27	8776.54
2762.14	8764.74
2763.01	8749.26
2763.88	8725.95
2764.76	8709.81
2765.63	8693.3
2766.5	8690.1
2767.37	8689.05
2768.25	8688.72
2769.12	8680.63
2769.99	8683.93
2770.86	8679.24
2771.73	8658.97
2772.61	8635.3
2773.48	8614.71
2774.35	8598.49
2775.22	8586.09
2776.09	8576.16
2776.96	8571.25
2777.83	8574.26
2778.7	8577.11
2779.57	8578.65
2780.44	8578.62
2781.31	8576.48
2782.18	8571.02
2783.05	8563.45
2783.92	8554.37
2784.79	8541.93
2785.66	8525.06
2786.53	8506.5
2787.4	8492.67
2788.27	8488.39
2789.14	8485
2790.01	8485.71
2790.88	8482.11
2791.75	8476.97
2792.62	8471.74
2793.48	8462.45
2794.35	8452.4
2795.22	8441.48
2796.09	8431.01
2796.96	8421.28
2797.82	8419.45
2798.69	8420.49
2799.56	8417.59
2800.43	8412.11
2801.29	8407.38
2802.16	8394.8
2803.03	8378
2803.9	8359.38
2804.76	8344.41
2805.63	8330.54
2806.5	8316.85
2807.36	8304.09
2808.23	8293.91
2809.09	8287.08
2809.96	8283.36
2810.83	8285.74
2811.69	8295.19
2812.56	8301.53
2813.42	8295.3
2814.29	8281.33
2815.15	8260.08
2816.02	8240.65
2816.88	8228.13
2817.75	8223.27
2818.61	8222.72
2819.48	8221.49
2820.34	8224.02
2821.21	8217.15
2822.07	8207.38
2822.94	8203.25
2823.8	8201.59
2824.66	8204.64
2825.53	8207.94
2826.39	8205.22
2827.26	8199.24
2828.12	8172.47
2828.98	8154.18
2829.85	8136.21
2830.71	8118.19
2831.57	8099.95
2832.43	8091.93
2833.3	8096.57
2834.16	8102.13
2835.02	8102.51
2835.88	8100.86
2836.75	8089.36
2837.61	8073.08
2838.47	8059.99
2839.33	8046.85
2840.19	8032.05
2841.06	8018.31
2841.92	8008.19
2842.78	8000.85
2843.64	8004.98
2844.5	8010.18
2845.36	8014.41
2846.22	8018.33
2847.08	8016.97
2847.94	8010.26
2848.81	7993.86
2849.67	7978.16
2850.53	7970.38
2851.39	7958.02
2852.25	7952.52
2853.11	7951.52
2853.97	7944.71
2854.82	7934.47
2855.68	7925.61
2856.54	7910.36
2857.4	7898.76
2858.26	7891.86
2859.12	7891.79
2859.98	7889.54
2860.84	7885.07
2861.7	7877.81
2862.56	7867.48
2863.41	7853.84
2864.27	7851.03
2865.13	7845.81
2865.99	7847.64
2866.85	7843.81
2867.7	7843.27
2868.56	7828.88
2869.42	7815.15
2870.28	7800.59
2871.13	7786.43
2871.99	7773.06
2872.85	7762.44
2873.7	7759.1
2874.56	7759.67
2875.42	7764.81
2876.27	7773.76
2877.13	7769.69
2877.99	7759.26
2878.84	7744.78
2879.7	7731.98
2880.56	7723.98
2881.41	7716.8
2882.27	7709.04
2883.12	7703.56
2883.98	7697.57
2884.83	7690.09
2885.69	7681.14
2886.54	7670.18
2887.4	7659.3
2888.25	7647.7
2889.11	7635.81
2889.96	7623.79
2890.82	7611.82
2891.67	7600.06
2892.52	7588.92
2893.38	7577.56
2894.23	7572.17
2895.09	7580.28
2895.94	7582.23
2896.79	7581.71
2897.65	7577.77
2898.5	7570.14
2899.35	7561.08
2900.21	7550.8
2901.06	7539.24
2901.91	7528.96
2902.76	7520.69
2903.62	7513.64
2904.47	7509.58
2905.32	7505.47
2906.17	7501.4
2907.03	7496.67
2907.88	7490.9
2908.73	7484.08
2909.58	7473.74
2910.43	7462.6
2911.28	7450.16
2912.14	7436.66
2912.99	7421.71
2913.84	7405.8
2914.69	7390.28
2915.54	7375.38
2916.39	7364.49
2917.24	7355.41
2918.09	7348.22
2918.94	7342.58
2919.79	7338.16
2920.64	7334.55
2921.49	7331.41
2922.34	7328.65
2923.19	7325.45
2924.04	7321.53
2924.89	7316.62
2925.74	7310.59
2926.59	7303.21
2927.44	7294.53
2928.29	7284.95
2929.14	7275.58
2929.98	7265.46
2930.83	7257.91
2931.68	7254.87
2932.53	7262.31
2933.38	7257.53
2934.23	7248.78
2935.07	7239.86
2935.92	7231.18
2936.77	7222.65
2937.62	7214.27
2938.47	7205.83
2939.31	7197.28
2940.16	7188.59
2941.01	7179.62
2941.85	7166.73
2942.7	7149.68
2943.55	7125.24
2944.39	7117.25
2945.24	7112.66
2946.09	7105.56
2946.93	7105.93
2947.78	7106.88
2948.63	7100.79
2949.47	7089.23
2950.32	7077.25
2951.16	7063.54
2952.01	7049.65
2952.85	7050.38
2953.7	7052.73
2954.55	7057.72
2955.39	7064.8
2956.24	7074.63
2957.08	7069.65
2957.92	7052.47
2958.77	7032.51
2959.61	7003.29
2960.46	6974.69
2961.3	6962.19
2962.15	6957.27
2962.99	6960.05
2963.83	6969.49
2964.68	6971.28
2965.52	6963.58
2966.37	6949.51
2967.21	6938.28
2968.05	6926.31
2968.9	6916.04
2969.74	6909.48
2970.58	6904.01
2971.42	6898.61
2972.27	6893.96
2973.11	6889.54
2973.95	6884.7
2974.79	6873.77
2975.64	6865.94
2976.48	6857.83
2977.32	6861.96
2978.16	6865.5
2979	6867.81
2979.85	6869.12
2980.69	6869.5
2981.53	6868.22
2982.37	6854.39
2983.21	6841.85
2984.05	6830.9
2984.89	6821.56
2985.73	6815.03
2986.57	6808.45
2987.41	6802.29
2988.25	6797.18
2989.1	6792.85
2989.94	6788.76
2990.77	6784.55
2991.62	6779.52
2992.45	6774.45
2993.29	6768.81
2994.13	6760.46
2994.97	6750.83
2995.81	6741.45
2996.65	6740.12
2997.49	6753.62
2998.33	6756.57
2999.17	6720.44
