200.833	18584.2
202.102	18591.5
203.371	18612.8
204.639	18630.1
205.907	18640.7
207.175	18644
208.442	18639.9
209.71	18633.5
210.977	18633.8
212.244	18639.6
213.511	18654.8
214.777	18674.6
216.042	18704.2
217.309	18733.2
218.575	18776.4
219.84	18838.5
221.106	18864.8
222.371	18857
223.635	18875.9
224.9	18902.4
226.165	18940.1
227.429	18987.9
228.694	19051.1
229.956	19103.5
231.22	19127.6
232.484	19141.1
233.747	19148.6
235.011	19176.1
236.272	19203.3
237.535	19234
238.798	19273.3
240.06	19316.8
241.321	19363.8
242.583	19411.2
243.845	19429.4
245.105	19446.6
246.367	19462.8
247.628	19488.9
248.888	19510
250.149	19540.2
251.409	19575.7
252.67	19580.5
253.928	19582.7
255.189	19587.3
256.447	19592.6
257.707	19598.5
258.966	19605.7
260.224	19615.2
261.483	19626.5
262.742	19640.5
263.999	19656.8
265.257	19677.9
266.514	19702.8
267.772	19732.8
269.028	19763
270.286	19796.5
271.543	19814.9
272.799	19832
274.056	19849.7
275.311	19867.4
276.568	19882.6
277.823	19903.5
279.079	19940.1
280.333	19973.2
281.589	19998.3
282.843	20021.7
284.099	20040.5
285.352	20060.8
286.607	20081.8
287.86	20100.1
289.114	20117.7
290.368	20134
291.621	20149.3
292.875	20164
294.127	20178.7
295.38	20196
296.632	20214.4
297.884	20254.8
299.137	20281.2
300.388	20290.7
301.641	20298.4
302.891	20294.1
304.142	20288.2
305.394	20286.7
306.644	20277.6
307.894	20277.8
309.146	20287.4
310.395	20303.4
311.645	20316.7
312.895	20322
314.144	20333
315.393	20327.5
316.642	20324.3
317.892	20335.4
319.14	20358.7
320.388	20393.3
321.637	20428
322.885	20451.6
324.132	20476.1
325.38	20501.2
326.628	20513.9
327.875	20522.6
329.122	20539
330.368	20556.2
331.614	20574.5
332.862	20594.2
334.108	20615.1
335.353	20636.8
336.599	20659.6
337.844	20680.9
339.089	20685.5
340.335	20712.1
341.58	20732.3
342.824	20774.2
344.068	20809.3
345.312	20843.5
346.556	20853.9
347.8	20861.9
349.043	20857.4
350.286	20841.7
351.53	20830.5
352.774	20832.2
354.016	20841.6
355.259	20848.9
356.501	20856.4
357.743	20868.3
358.985	20886.5
360.227	20897.9
361.468	20908.1
362.709	20915.8
363.95	20927.5
365.191	20940.4
366.432	20954.7
367.672	20969.3
368.912	20987.2
370.152	20988.4
371.392	20983.2
372.632	20970.9
373.871	20952.4
375.11	20947.6
376.348	20959.5
377.587	20975.3
378.825	20996
380.064	21012
381.302	21025.1
382.54	21032.7
383.778	21041.6
385.016	21042.2
386.253	21039.9
387.489	21036.2
388.726	21041.3
389.963	21074.6
391.199	21108.7
392.436	21134.1
393.672	21149.8
394.907	21164.7
396.142	21177.5
397.378	21187.2
398.614	21196
399.849	21199
401.082	21211
402.317	21235.7
403.552	21258.8
404.786	21276.7
406.019	21294.7
407.253	21310.4
408.487	21324.2
409.721	21335.3
410.953	21344.2
412.186	21350.9
413.419	21355.4
414.651	21357.8
415.883	21357.9
417.116	21356
418.347	21352.5
419.579	21353.8
420.811	21361.7
422.041	21368.7
423.272	21376.8
424.504	21380.3
425.733	21384.2
426.964	21381.4
428.194	21376.9
429.424	21377.4
430.654	21382.8
431.883	21395
433.113	21404.5
434.341	21413.1
435.571	21421.5
436.799	21429.5
438.028	21436.3
439.257	21443.1
440.484	21449.5
441.713	21455.8
442.94	21462
444.168	21469.2
445.394	21480.3
446.622	21494
447.848	21510.3
449.076	21528.5
450.301	21545.6
451.528	21553.7
452.754	21560.6
453.979	21565.9
455.205	21569.7
456.43	21572.3
457.656	21575.2
458.88	21579.7
460.106	21585.4
461.33	21593
462.554	21601.7
463.779	21611.7
465.002	21622
466.225	21626.2
467.45	21625.4
468.672	21623.3
469.895	21627.8
471.119	21636.7
472.341	21645.7
473.563	21655.3
474.786	21664.1
476.008	21667.1
477.229	21657.6
478.452	21646.4
479.673	21630.2
480.894	21607.4
482.115	21581
483.337	21577.2
484.557	21570.5
485.777	21571.1
486.997	21568.4
488.218	21566.5
489.438	21564.6
490.657	21562.5
491.876	21559.8
493.096	21556.5
494.315	21548.6
495.533	21535.7
496.752	21511.6
497.97	21502.4
499.188	21496.6
500.407	21536.8
501.625	21544.2
502.842	21552
504.059	21561.5
505.276	21565.2
506.493	21565.9
507.71	21569.2
508.926	21573.5
510.142	21578
511.358	21581.7
512.575	21586.1
513.791	21591
515.006	21596.9
516.222	21605.4
517.437	21619.8
518.651	21635.7
519.866	21653.1
521.081	21674.4
522.295	21689.4
523.509	21684.2
524.723	21677.6
525.937	21674.4
527.15	21679.6
528.363	21698.3
529.576	21720.6
530.789	21738.4
532.002	21755.1
533.215	21770.4
534.426	21783.9
535.638	21793.6
536.85	21800.3
538.061	21803.7
539.273	21803.5
540.484	21797
541.695	21783.7
542.906	21767.6
544.117	21752.8
545.327	21741
546.537	21734.4
547.747	21741.7
548.957	21752.7
550.167	21768.3
551.377	21787.9
552.585	21812.2
553.794	21816.8
555.003	21816.9
556.212	21815.1
557.421	21813.2
558.628	21811.8
559.836	21813.7
561.044	21814.5
562.252	21814.5
563.458	21813.8
564.666	21811.6
565.873	21807.9
567.08	21803
568.286	21796.8
569.493	21789.3
570.699	21780.8
571.904	21770.9
573.111	21760
574.317	21747.7
575.521	21740.3
576.727	21744.4
577.932	21766.8
579.136	21800.9
580.341	21825.6
581.544	21842.5
582.749	21843.9
583.954	21845.2
585.156	21846
586.361	21846.2
587.563	21845.8
588.767	21861.2
589.97	21855.9
591.172	21847.4
592.375	21836
593.577	21823.1
594.78	21811
595.981	21815.9
597.183	21831.6
598.384	21842
599.586	21845.2
600.786	21842.2
601.988	21832.7
603.188	21833
604.389	21829.4
605.589	21826.4
606.79	21824.3
607.989	21816.2
609.188	21805.9
610.389	21796
611.587	21786
612.787	21777.8
613.986	21771.1
615.184	21760.7
616.383	21742.8
617.581	21726.5
618.78	21704.4
619.977	21681.2
621.174	21659.5
622.373	21644.8
623.57	21647.6
624.766	21655.9
625.964	21642.8
627.16	21626.2
628.356	21608.1
629.554	21589
630.749	21570.5
631.945	21551.4
633.14	21534.9
634.337	21539.3
635.532	21530.7
636.726	21523.7
637.921	21513.4
639.117	21499.9
640.311	21483.5
641.505	21478.3
642.699	21482.7
643.892	21497.5
645.087	21523.4
646.28	21558.5
647.473	21617.2
648.666	21431.4
649.859	21448
651.051	21454.5
652.245	21467.2
653.437	21483.5
654.629	21563
655.821	21576.6
657.012	21581.8
658.204	21579.7
659.395	21570.4
660.586	21554.5
661.777	21530.8
662.967	21511.2
664.158	21504.3
665.349	21504.6
666.539	21508.6
667.729	21517.1
668.919	21529.4
670.109	21546.5
671.298	21568.3
672.487	21594.9
673.676	21623.4
674.865	21640.2
676.053	21648.2
677.242	21648.6
678.43	21640.6
679.616	21623.4
680.804	21593.4
681.992	21557.9
683.179	21551.3
684.366	21551.1
685.554	21547.8
686.74	21536.7
687.927	21528.4
689.114	21521
690.3	21515.1
691.486	21511.5
692.671	21509.2
693.856	21521.2
695.042	21531
696.227	21539.2
697.413	21531.9
698.598	21499.9
699.781	21480.2
700.966	21461.1
702.15	21443.2
703.334	21429.9
704.518	21421.9
705.701	21415.6
706.885	21408.4
708.068	21399.5
709.252	21383.8
710.433	21365.4
711.616	21351.3
712.799	21338.1
713.98	21328.6
715.163	21325.9
716.345	21324.5
717.527	21323.2
718.707	21322.9
719.889	21324.1
721.071	21324.6
722.25	21326
723.432	21327.3
724.611	21327.6
725.792	21326.5
726.972	21325.3
728.151	21323.8
729.332	21325.6
730.512	21341.9
731.69	21361.9
732.87	21386.1
734.048	21407.3
735.227	21420.3
736.405	21419.3
737.584	21408.2
738.761	21361.1
739.94	21344
741.117	21347.5
742.295	21372
743.471	21393.3
744.649	21404.1
745.825	21416.3
747.003	21429
748.179	21442.6
749.356	21455.9
750.531	21466.1
751.708	21470.7
752.883	21462.1
754.059	21458.5
755.234	21456.6
756.409	21456.5
757.585	21456.8
758.759	21458.4
759.934	21461.5
761.108	21464.6
762.282	21458
763.456	21430.5
764.63	21401.9
765.803	21372.2
766.977	21346.1
768.15	21343.8
769.323	21345.5
770.496	21346
771.668	21347.3
772.841	21347
774.014	21355.1
775.185	21345.8
776.357	21322.7
777.528	21295.6
778.701	21281.2
779.872	21266.6
781.042	21251.6
782.213	21237.7
783.383	21225
784.555	21216.3
785.725	21206.9
786.895	21192.5
788.064	21175.2
789.234	21154
790.404	21135.5
791.573	21116.8
792.742	21099.7
793.911	21084.8
795.08	21073.8
796.248	21067.1
797.416	21064.9
798.584	21065.5
799.753	21063.3
800.921	21048.8
802.088	21046.3
803.256	21046.9
804.423	21051.4
805.59	21053.4
806.756	21052.5
807.923	21049.4
809.089	21045.6
810.256	21034.6
811.422	21023.4
812.587	21014.8
813.753	21014.2
814.918	21036.1
816.084	21051.8
817.249	21065.4
818.414	21077.4
819.578	21092.7
820.743	21106.4
821.907	21116.8
823.072	21116.9
824.236	21107.6
825.399	21088.2
826.562	21075.3
827.725	21071.1
828.889	21076.4
830.052	21094.3
831.215	21125.1
832.377	21168
833.54	21198.1
834.701	21202.4
835.863	21182.5
837.025	21151.8
838.187	21150.4
839.349	21148.1
840.51	21144.4
841.67	21138.1
842.831	21129.3
843.992	21119.5
845.153	21106.8
846.312	21092.6
847.473	21077.1
848.633	21061.1
849.793	21061.7
850.951	21061.3
852.111	21058.8
853.27	21052.9
854.428	21046.7
855.588	21035.5
856.747	21022.4
857.904	21006.2
859.063	20988.3
860.221	20969
861.378	20948.5
862.536	20929.3
863.694	20908.1
864.85	20888
866.008	20869.1
867.164	20851.5
868.321	20834.9
869.478	20819.1
870.633	20803
871.79	20786.8
872.945	20768.4
874.101	20747.4
875.256	20726.4
876.412	20706.6
877.566	20687.9
878.722	20670.1
879.876	20653.5
881.031	20641.2
882.185	20634.4
883.34	20635.6
884.493	20637
885.647	20637.1
886.8	20625.9
887.954	20610.8
889.107	20590.9
890.261	20566.5
891.413	20547.2
892.565	20540.9
893.718	20544.2
894.87	20551.6
896.023	20561.6
897.174	20572.6
898.326	20584.3
899.478	20596.2
900.629	20608.7
901.779	20621.2
902.931	20632.8
904.081	20644.9
905.231	20643.3
906.383	20611.9
907.532	20603.8
908.682	20603.2
909.831	20623.7
910.982	20647
912.131	20614.2
913.28	20610.5
914.429	20614.9
915.578	20623.9
916.727	20636.1
917.875	20644.4
919.023	20671.3
920.171	20669.3
921.32	20669.9
922.467	20657
923.614	20634.8
924.761	20604.6
925.908	20596.2
927.055	20610.5
928.203	20628
929.349	20640.2
930.496	20649.3
931.642	20643.3
932.787	20638.6
933.933	20623.1
935.079	20605.2
936.224	20585.6
937.369	20565.3
938.514	20554.6
939.659	20548.9
940.804	20546.3
941.948	20553
943.092	20557.8
944.236	20558.5
945.38	20557.3
946.524	20556.5
947.667	20553.4
948.811	20543.8
949.954	20514.4
951.097	20486.2
952.24	20468.6
953.383	20456.4
954.525	20446.8
955.667	20441.5
956.81	20432
957.952	20413.3
959.093	20394.1
960.235	20380.1
961.376	20375.1
962.516	20373
963.658	20373.7
964.798	20378
965.939	20384.9
967.08	20393.7
968.22	20402.2
969.359	20385.5
970.499	20365.8
971.639	20346.2
972.779	20326.9
973.918	20310.2
975.056	20294.6
976.195	20293.5
977.334	20310
978.473	20343.7
979.61	20372.2
980.749	20381.2
981.887	20370.1
983.024	20348.3
984.162	20326.1
985.3	20295.5
986.437	20264.8
987.573	20242
988.711	20227.4
989.848	20235
990.983	20250.8
992.12	20263
993.255	20278.5
994.392	20286.6
995.528	20300.9
996.662	20299.6
997.798	20294.9
998.933	20288.8
1000.07	20283.8
1001.2	20281.9
1002.34	20281.7
1003.47	20288.6
1004.61	20295.4
1005.74	20307.3
1006.87	20320.9
1008.01	20337.2
1009.14	20339
1010.27	20310.8
1011.41	20279.8
1012.54	20252.3
1013.67	20229.6
1014.81	20209.7
1015.94	20228.6
1017.07	20230.3
1018.2	20228.4
1019.33	20221.9
1020.47	20212.2
1021.6	20195.7
1022.73	20183.5
1023.86	20170.8
1024.99	20159
1026.12	20149.8
1027.25	20150.3
1028.38	20147
1029.51	20132.3
1030.64	20118.6
1031.77	20102.8
1032.9	20090.9
1034.03	20080.2
1035.16	20066.4
1036.29	20052.5
1037.42	20030.9
1038.55	20012.5
1039.67	19995.7
1040.8	19979.2
1041.93	19963.5
1043.06	19949
1044.19	19935.8
1045.31	19924
1046.44	19913.1
1047.57	19903.9
1048.69	19896.8
1049.82	19893.5
1050.95	19892.8
1052.08	19886.4
1053.2	19876.2
1054.33	19848.2
1055.45	19815.5
1056.58	19781.1
1057.7	19749.7
1058.83	19726.4
1059.95	19715.4
1061.08	19709.4
1062.2	19711.1
1063.33	19718
1064.45	19733.4
1065.58	19752
1066.7	19769.9
1067.83	19785
1068.95	19789
1070.07	19794.4
1071.2	19798.7
1072.32	19753.2
1073.44	19712
1074.56	19675.8
1075.69	19661.2
1076.81	19693.5
1077.93	19707.7
1079.05	19732.9
1080.17	19758.6
1081.3	19775.4
1082.42	19783.9
1083.54	19781.6
1084.66	19771.2
1085.78	19752.3
1086.9	19725.6
1088.02	19697.2
1089.14	19707.5
1090.26	19741
1091.38	19760.5
1092.5	19754.6
1093.62	19707.6
1094.74	19660
1095.86	19668.3
1096.98	19685.1
1098.1	19718.3
1099.22	19732.9
1100.34	19739
1101.45	19733.3
1102.57	19711.7
1103.69	19693.6
1104.81	19673.7
1105.93	19659.6
1107.04	19653.9
1108.16	19648.3
1109.28	19646.8
1110.4	19649.7
1111.51	19650.1
1112.63	19647.9
1113.75	19640.2
1114.86	19623.3
1115.98	19602.1
1117.09	19577.7
1118.21	19547.2
1119.32	19513.1
1120.44	19479.2
1121.55	19452
1122.67	19442.5
1123.78	19429.8
1124.9	19418.3
1126.01	19406.9
1127.13	19394.9
1128.24	19383
1129.35	19370.2
1130.47	19357.6
1131.58	19344.9
1132.7	19333.4
1133.81	19329.7
1134.92	19307.6
1136.03	19283.6
1137.15	19264.1
1138.26	19248.6
1139.37	19243.1
1140.48	19225.8
1141.59	19194.3
1142.71	19152.7
1143.82	19121.7
1144.93	19093.7
1146.04	19074.6
1147.15	19070.1
1148.26	19061.6
1149.37	19050.4
1150.48	19038.4
1151.59	19028.9
1152.7	19023.9
1153.81	19019.6
1154.92	19018.7
1156.03	19015.8
1157.14	19008
1158.25	19001.1
1159.36	18986.7
1160.47	18968.8
1161.58	18946.3
1162.68	18928.9
1163.79	18918.5
1164.9	18914.4
1166.01	18916.3
1167.12	18919.6
1168.22	18930.1
1169.33	18942.8
1170.44	18960.7
1171.55	18978.7
1172.65	18983.7
1173.76	18979.8
1174.87	18967.5
1175.97	18956.7
1177.08	18948.7
1178.18	18938
1179.29	18926.9
1180.4	18914.9
1181.5	18902.2
1182.61	18889.9
1183.71	18876.2
1184.82	18919.9
1185.92	18961.6
1187.02	18996.6
1188.13	19014.4
1189.23	19002.6
1190.34	18964.5
1191.44	18969.5
1192.54	18973
1193.65	18973
1194.75	18972.7
1195.85	18973.5
1196.96	18974.5
1198.06	18976.3
1199.16	18978.5
1200.26	18981.8
1201.37	18985.1
1202.47	18993.3
1203.57	19001
1204.67	19004.7
1205.77	19002.7
1206.87	18988.9
1207.97	18969.5
1209.08	18953.9
1210.18	18937.5
1211.28	18924
1212.38	18914.1
1213.48	18905.3
1214.58	18897.5
1215.68	18890.4
1216.78	18883.7
1217.88	18877.3
1218.98	18869
1220.07	18860.7
1221.17	18851.3
1222.27	18841
1223.37	18827.9
1224.47	18810.1
1225.57	18780.1
1226.66	18750.9
1227.76	18733.2
1228.86	18732.3
1229.96	18726.5
1231.06	18720.5
1232.15	18713.7
1233.25	18710.2
1234.35	18700.2
1235.44	18690.6
1236.54	18673.3
1237.63	18650.5
1238.73	18634.9
1239.83	18621.3
1240.92	18610.2
1242.02	18601.3
1243.11	18599.7
1244.21	18607.3
1245.3	18622.3
1246.4	18634.1
1247.49	18630.7
1248.59	18621.6
1249.68	18604.8
1250.78	18581.5
1251.87	18562.9
1252.96	18541.1
1254.06	18539
1255.15	18527.7
1256.24	18527.3
1257.34	18507.2
1258.43	18487.6
1259.52	18464.4
1260.62	18451.5
1261.71	18450.9
1262.8	18455.2
1263.89	18457.4
1264.98	18459.2
1266.08	18460
1267.17	18461.1
1268.26	18456.4
1269.35	18452.9
1270.44	18449.7
1271.53	18453.4
1272.62	18473.4
1273.71	18483.1
1274.8	18488.2
1275.89	18494.4
1276.98	18489.2
1278.07	18483.3
1279.16	18477
1280.25	18471.1
1281.34	18466.9
1282.43	18465
1283.52	18466.2
1284.61	18466.5
1285.69	18466.6
1286.78	18466.3
1287.87	18464.1
1288.96	18461.6
1290.05	18459.5
1291.13	18459.3
1292.22	18459.1
1293.31	18457.6
1294.4	18453.2
1295.48	18449.7
1296.57	18450.6
1297.66	18452.9
1298.74	18456.6
1299.83	18461.3
1300.92	18467.2
1302	18473.5
1303.09	18479.9
1304.17	18476
1305.26	18453.5
1306.34	18408.9
1307.43	18501
1308.51	18503.1
1309.6	18506.5
1310.68	18501.2
1311.76	18485.8
1312.85	18496.8
1313.93	18496.8
1315.02	18487.9
1316.1	18471.8
1317.18	18441.3
1318.27	18425.9
1319.35	18403.4
1320.43	18380.1
1321.52	18359
1322.6	18343.3
1323.68	18336.4
1324.76	18320.7
1325.85	18308.4
1326.93	18309.5
1328.01	18308.1
1329.09	18303.4
1330.17	18297.1
1331.25	18271.4
1332.33	18261.9
1333.41	18253.7
1334.49	18246.2
1335.58	18241.1
1336.65	18236.4
1337.74	18227.5
1338.82	18218.6
1339.89	18208.9
1340.97	18200.2
1342.05	18193.2
1343.13	18186.3
1344.21	18171.9
1345.29	18153.2
1346.37	18157
1347.45	18170.7
1348.53	18196.6
1349.6	18211.6
1350.68	18190.9
1351.76	18156
1352.84	18139.5
1353.92	18126.8
1354.99	18115.6
1356.07	18099.5
1357.15	18080.2
1358.22	18062.9
1359.3	18048.1
1360.38	18054.2
1361.45	18063.1
1362.53	18073.4
1363.61	18085
1364.68	18096.9
1365.76	18107.9
1366.83	18109.7
1367.91	18107.9
1368.98	18106.7
1370.06	18105.2
1371.13	18101.3
1372.21	18097
1373.28	18090.9
1374.35	18082.6
1375.43	18073.4
1376.5	18068.1
1377.58	18071
1378.65	18074.9
1379.72	18081.4
1380.8	18087.2
1381.87	18088.4
1382.94	18084.7
1384.01	18071.3
1385.09	18056.8
1386.16	18041.6
1387.23	18028.3
1388.3	18019.4
1389.38	18012.2
1390.45	18007.5
1391.52	18004.5
1392.59	18003.9
1393.66	18005.2
1393.92	18003.8
1395	18007.7
1396.07	18010.7
1397.15	18007.9
1398.22	17998.3
1399.3	17966.8
1400.38	17932.2
1401.45	17906.1
1402.53	17884
1403.6	17865.4
1404.68	17862.7
1405.75	17885.9
1406.82	17903.5
1407.9	17915.9
1408.97	17921.5
1410.05	17918.9
1411.12	17910
1412.19	17891.1
1413.27	17879.2
1414.34	17868.7
1415.41	17866.5
1416.49	17869.7
1417.56	17878.3
1418.63	17869.5
1419.7	17855.8
1420.78	17841.6
1421.85	17826.1
1422.92	17809.3
1423.99	17792.6
1425.06	17780.2
1426.14	17767.2
1427.21	17754.2
1428.28	17741.7
1429.35	17728.7
1430.42	17712.1
1431.49	17701
1432.56	17697.4
1433.63	17714.2
1434.7	17728.6
1435.77	17733.5
1436.84	17727.1
1437.91	17721.5
1438.98	17716
1440.05	17710.9
1441.12	17702.1
1442.18	17696
1443.25	17694.7
1444.32	17695.6
1445.39	17695.8
1446.46	17690.2
1447.53	17684
1448.59	17675.1
1449.66	17664.1
1450.73	17651.3
1451.8	17635.7
1452.86	17618.1
1453.93	17609.5
1455	17616.7
1456.06	17625.8
1457.13	17626
1458.2	17625.8
1459.26	17619.1
1460.33	17609
1461.39	17595
1462.46	17577.5
1463.52	17554.5
1464.59	17553.4
1465.65	17560
1466.72	17575
1467.78	17583.3
1468.85	17585.8
1469.91	17582.5
1470.98	17573.5
1472.04	17574.3
1473.1	17589
1474.17	17603
1475.23	17602.7
1476.3	17596.4
1477.36	17587.5
1478.42	17575.6
1479.48	17562.5
1480.55	17548.8
1481.61	17534.6
1482.67	17522.1
1483.73	17507.2
1484.8	17492.7
1485.86	17477.5
1486.92	17466.8
1487.98	17471.2
1489.04	17478.6
1490.1	17480
1491.17	17482.6
1492.23	17480.5
1493.29	17468.7
1494.35	17436.3
1495.41	17411.1
1496.47	17405
1497.53	17400.2
1498.59	17396.6
1499.65	17393.7
1500.71	17392.8
1501.77	17397.9
1502.83	17399.1
1503.88	17397.5
1504.94	17393.7
1506	17387.7
1507.06	17379.7
1508.12	17369.4
1509.18	17357.3
1510.23	17342.8
1511.29	17312.6
1512.35	17287.5
1513.41	17263.4
1514.47	17250.8
1515.52	17246.9
1516.58	17242.8
1517.64	17253.2
1518.69	17261.4
1519.75	17260.9
1520.81	17248.8
1521.86	17223.2
1522.92	17208.9
1523.97	17199.5
1525.03	17194.5
1526.08	17193.2
1527.14	17190
1528.2	17187.2
1529.25	17184.1
1530.31	17180.4
1531.36	17176.2
1532.42	17171.3
1533.47	17166.1
1534.52	17160.5
1535.58	17154.6
1536.63	17149.7
1537.69	17138.2
1538.74	17126.3
1539.79	17118.2
1540.84	17117.4
1541.9	17113.7
1542.95	17109.2
1544	17105.7
1545.06	17089.7
1546.11	17078.2
1547.16	17054.2
1548.21	17048.8
1549.27	17055
1550.32	17061.8
1551.37	17063.5
1552.42	17064.6
1553.47	17064.5
1554.52	17066.8
1555.57	17068.3
1556.62	17070.8
1557.67	17069.4
1558.72	17064.2
1559.77	17049.8
1560.82	17035.8
1561.87	17019.9
1562.92	17017.4
1563.97	17020.8
1565.02	17027.9
1566.07	17041.4
1567.12	17053.2
1568.17	17050.2
1569.22	17042.9
1570.27	17035.3
1571.32	17036.9
1572.36	17035.4
1573.41	17028.1
1574.46	17013.8
1575.51	17000.5
1576.56	16986.8
1577.6	16975.2
1578.65	16963
1579.7	16962.1
1580.74	16959.6
1581.79	16960.7
1582.84	16960.1
1583.88	16956.6
1584.93	16947.7
1585.98	16924.4
1587.02	16924.8
1588.07	16961.6
1589.11	16959
1590.16	16946.7
1591.2	16925.2
1592.25	16894.2
1593.29	16859.7
1594.34	16834.5
1595.38	16845.4
1596.43	16839.6
1597.47	16833
1598.52	16822.6
1599.56	16816.5
1600.6	16811.5
1601.65	16807
1602.69	16803.3
1603.73	16801.9
1604.78	16801.5
1605.82	16803.5
1606.86	16799.4
1607.91	16779.6
1608.95	16757.6
1609.99	16736.7
1611.03	16719.6
1612.08	16702.9
1613.12	16688.3
1614.16	16675.4
1615.2	16664.4
1616.24	16655.7
1617.28	16649.5
1618.32	16646.4
1619.36	16634.4
1620.41	16605.8
1621.45	16583.3
1622.49	16565.3
1623.53	16547.4
1624.57	16531.2
1625.61	16518.3
1626.65	16507.8
1627.69	16501.6
1628.73	16493
1629.76	16468.3
1630.8	16449.5
1631.84	16426.7
1632.88	16396.6
1633.92	16377.9
1634.96	16364.7
1636	16369.6
1637.03	16372
1638.07	16369.9
1639.11	16365.7
1640.15	16359
1641.19	16351.6
1642.22	16341.2
1643.26	16329.3
1644.3	16315.6
1645.33	16303
1646.37	16296.5
1647.41	16292.5
1648.44	16291
1649.48	16291
1650.52	16291.9
1651.55	16290.7
1652.59	16285.9
1653.62	16271.8
1654.66	16260.3
1655.69	16253.3
1656.73	16246.1
1657.76	16239.4
1658.8	16233
1659.83	16225.9
1660.87	16217.9
1661.9	16208.5
1662.93	16197.5
1663.97	16184.9
1665	16170.5
1666.04	16154.6
1667.07	16137.4
1668.1	16121.3
1669.14	16106.2
1670.17	16096.7
1671.2	16085.7
1672.23	16074.1
1673.27	16062
1674.3	16159.3
1675.33	16133.7
1676.36	16108.4
1677.39	16103.4
1678.43	16097.3
1679.46	16089.6
1680.49	16080.2
1681.52	16068.6
1682.55	16055
1683.58	16053.3
1684.61	16051.4
1685.64	16049.8
1686.67	16046.3
1687.7	16039.1
1688.73	16027.6
1689.76	16022.6
1690.79	16020.1
1691.82	16021.8
1692.85	16025.8
1693.88	16021.8
1694.91	16013
1695.94	15997.3
1696.97	15978.2
1698	15959.1
1699.02	15937.7
1700.05	15923.2
1701.08	15911.4
1702.11	15902.2
1703.14	15895
1704.16	15889.6
1705.19	15886
1706.22	15883.5
1707.25	15881.8
1708.27	15877.8
1709.3	15856.5
1710.33	15830.2
1711.35	15807.3
1712.38	15786
1713.41	15765.9
1714.43	15747.3
1715.46	15731
1716.48	15717.8
1717.51	15708.1
1718.53	15704.2
1719.56	15704.7
1720.58	15709.6
1721.61	15725.7
1722.63	15738.7
1723.66	15739.4
1724.68	15709.6
1725.71	15683.1
1726.73	15657.3
1727.75	15637.6
1728.78	15630.1
1729.8	15619.5
1730.83	15610.3
1731.85	15604.7
1732.87	15599.6
1733.89	15599.6
1734.92	15591.9
1735.94	15535.4
1736.96	15535.8
1737.98	15540.8
1739.01	15539.4
1740.03	15530.5
1741.05	15516.1
1742.07	15496.7
1743.09	15471.7
1744.12	15450.5
1745.14	15432.6
1746.16	15419.4
1747.18	15410.5
1748.2	15405.5
1749.22	15404.4
1750.24	15407.5
1751.26	15412.2
1752.28	15403.9
1753.3	15379.4
1754.32	15365.1
1755.34	15375.6
1756.36	15382
1757.38	15382.2
1758.4	15376.5
1759.42	15363.5
1760.44	15351.8
1761.45	15341.2
1762.47	15331.5
1763.49	15319.5
1764.51	15309.8
1765.53	15297.6
1766.55	15286.3
1767.56	15275.1
1768.58	15264.9
1769.6	15258
1770.61	15255.8
1771.63	15271.7
1772.65	15285
1773.67	15248.4
1774.68	15202.8
1775.7	15162.8
1776.72	15210.2
1777.73	15208.9
1778.75	15201.8
1779.76	15190.2
1780.78	15147.2
1781.79	15124.2
1782.81	15113.5
1783.83	15101.7
1784.84	15092.8
1785.85	15088.5
1786.87	15089
1787.88	15085
1788.9	15089.8
1789.91	15081.4
1790.93	15060.5
1791.94	15048.9
1792.95	15035.9
1793.97	15042.1
1794.98	15040.8
1796	15057.7
1797.01	14982
1798.02	14949.7
1799.03	14940.2
1800.05	14939.1
1801.06	14919.4
1802.07	14960.9
1803.08	14966.8
1804.1	14942.4
1805.11	14932.3
1806.12	14919.4
1807.13	14902.4
1808.14	14882.4
1809.15	14862.2
1810.17	14842.1
1811.18	14822.6
1812.19	14804
1813.2	14791
1814.21	14778.2
1815.22	14766.9
1816.23	14756.8
1817.24	14748.2
1818.25	14740.4
1819.26	14732.2
1820.27	14723.9
1821.28	14713.2
1822.29	14702.2
1823.3	14690.5
1824.3	14678.1
1825.31	14664.8
1826.32	14651.3
1827.33	14662.5
1828.34	14672.4
1829.35	14680.5
1830.35	14680.7
1831.36	14675.1
1832.37	14663.8
1833.38	14647.8
1834.38	14625.6
1835.39	14598.3
1836.4	14565.5
1837.41	14529.3
1838.41	14497.5
1839.42	14458
1840.43	14428.7
1841.43	14420.9
1842.44	14417.7
1843.44	14422.3
1844.45	14417.5
1845.46	14407.9
1846.46	14382.2
1847.47	14378.7
1848.47	14379.7
1849.48	14381.9
1850.48	14413.7
1851.49	14408.1
1852.49	14361
1853.49	14331.5
1854.5	14309.2
1855.5	14291.4
1856.51	14272
1857.51	14263.1
1858.51	14262.2
1859.52	14267.3
1860.52	14271.7
1861.52	14256.1
1862.53	14239.5
1863.53	14234.5
1864.53	14241
1865.54	14239.7
1866.54	14230
1867.54	14218.1
1868.54	14206.8
1869.54	14196.7
1870.55	14187.9
1871.55	14178.9
1872.55	14169.6
1873.55	14159.8
1874.55	14149.6
1875.55	14137
1876.55	14119.5
1877.55	14105.9
1878.55	14093.5
1879.55	14082.3
1880.56	14071.8
1881.55	14061.6
1882.56	14051.8
1883.55	14042.7
1884.55	14034.2
1885.55	14026.2
1886.55	14018.7
1887.55	14011.9
1888.55	14005.8
1889.55	14000.4
1890.55	13994.6
1891.55	13984.6
1892.55	13967.9
1893.54	13948.4
1894.54	13918.7
1895.54	13895.4
1896.54	13893.3
1897.54	13895.2
1898.53	13899.8
1899.53	13898.1
1900.53	13894.3
1901.52	13888.8
1902.52	13881.7
1903.52	13872.5
1904.51	13861.6
1905.51	13848.7
1906.51	13838.5
1907.5	13832.4
1908.5	13814.2
1909.49	13796.2
1910.49	13778.7
1911.49	13761.5
1912.48	13744.1
1913.48	13727.1
1914.47	13728
1915.46	13737
1916.46	13735.7
1917.45	13726.1
1918.45	13704.7
1919.44	13676.1
1920.44	13639.4
1921.43	13618.5
1922.43	13601.3
1923.42	13585.5
1924.41	13578.2
1925.41	13558.2
1926.4	13510.8
1927.39	13497.9
1928.38	13496.1
1929.38	13512.4
1930.37	13511.5
1931.36	13500.7
1932.35	13482.8
1933.35	13476.4
1934.34	13468.4
1935.33	13457.9
1936.32	13445.7
1937.31	13431.5
1938.3	13414.9
1939.29	13394.9
1940.29	13384.4
1941.28	13383.4
1942.27	13379.3
1943.26	13375.6
1944.25	13369.2
1945.24	13358.5
1946.23	13347.9
1947.22	13336.6
1948.21	13325.7
1949.2	13314.4
1950.19	13303.1
1951.18	13292.3
1952.17	13273.4
1953.16	13256
1954.14	13240
1955.13	13223.4
1956.12	13216.5
1957.11	13211.2
1958.1	13207.4
1959.09	13202.5
1960.07	13197.1
1961.06	13189.2
1962.05	13175.6
1963.04	13162
1964.02	13147.8
1965.01	13133.7
1966	13119.8
1966.99	13106.2
1967.97	13092.5
1968.96	13079.8
1969.95	13070.9
1970.93	13072.8
1971.92	13113.5
1972.9	13129.7
1973.89	13156.7
1974.88	13074.1
1975.86	12990.4
1976.85	12967.4
1977.83	12951.8
1978.82	12964.2
1979.8	12983.6
1980.79	12999.8
1981.77	13012
1982.76	12996.4
1983.74	12980.4
1984.72	12961.5
1985.71	12941.4
1986.69	12922.2
1987.67	12905.2
1988.66	12889.7
1989.64	12876.7
1990.62	12863.1
1991.61	12838.9
1992.59	12810.8
1993.57	12795.9
1994.56	12788.4
1995.54	12785.3
1996.52	12785.4
1997.5	12779.6
1998.49	12774.3
1999.47	12765.6
2000.45	12755.3
2001.43	12743
2002.41	12729.4
2003.39	12714.4
2004.38	12699
2005.36	12688.8
2006.34	12684.8
2007.32	12678.3
2008.3	12675.1
2009.28	12665.4
2010.26	12658.4
2011.24	12635.9
2012.22	12611.2
2013.2	12594.7
2014.18	12582.4
2015.16	12573.6
2016.14	12566.4
2017.12	12560.6
2018.1	12557.2
2019.07	12538.6
2020.05	12526.2
2021.03	12509.1
2022.01	12497.4
2022.99	12495.8
2023.97	12496.1
2024.95	12493.2
2025.92	12489.1
2026.9	12483.9
2027.88	12475.4
2028.86	12453.9
2029.83	12432.9
2030.81	12408.9
2031.79	12380.1
2032.76	12354.3
2033.74	12339.1
2034.72	12352.7
2035.69	12389.5
2036.67	12369.3
2037.65	12349.3
2038.62	12322
2039.6	12303.6
2040.57	12281.9
2041.55	12275.3
2042.52	12266
2043.5	12261
2044.47	12261.5
2045.45	12255.1
2046.42	12238.9
2047.4	12216.7
2048.37	12185.1
2049.35	12162.1
2050.32	12142.8
2051.29	12139.4
2052.27	12129.1
2053.24	12134
2054.21	12134.8
2055.19	12128.9
2056.16	12117
2057.13	12101.2
2058.11	12084.2
2059.08	12068.5
2060.05	12042
2061.02	12029.2
2062	12021.8
2062.97	12016.3
2063.94	12014
2064.91	12005.1
2065.89	11992.8
2066.86	11980.6
2067.83	11967.7
2068.8	11954.2
2069.77	11939.4
2070.74	11924.2
2071.71	11909.3
2072.68	11894.8
2073.65	11880.6
2074.62	11867.9
2075.59	11875.9
2076.56	11879.8
2077.53	11902.7
2078.5	11859
2079.47	11825.1
2080.44	11794.1
2081.41	11765.7
2082.38	11746.1
2083.35	11732.2
2084.32	11735.5
2085.29	11740.8
2086.26	11739.7
2087.23	11733
2088.19	11705.1
2089.16	11686.7
2090.13	11673.7
2091.1	11662.6
2092.07	11651.8
2093.03	11641.3
2094	11631
2094.97	11620.5
2095.94	11609.8
2096.9	11598.9
2097.87	11589
2098.84	11581.3
2099.8	11576
2100.77	11573.9
2101.74	11571.7
2102.7	11565
2103.67	11554.6
2104.63	11534.8
2105.6	11520.1
2106.56	11505.4
2107.53	11491.2
2108.49	11477.1
2109.46	11462.9
2110.42	11454.2
2111.39	11449.6
2112.35	11446.2
2113.32	11440.9
2114.28	11430.7
2115.25	11420.2
2116.21	11408.5
2117.17	11392
2118.14	11376.5
2119.1	11361.4
2120.07	11349.2
2121.03	11340
2121.99	11329
2122.96	11318.5
2123.92	11308.3
2124.88	11298.4
2125.84	11290
2126.81	11281.2
2127.77	11277.9
2128.73	11290.4
2129.69	11294.4
2130.65	11285.3
2131.62	11267
2132.58	11246.1
2133.54	11225.3
2134.5	11203.9
2135.46	11183.3
2136.42	11166.8
2137.38	11156.5
2138.34	11153.9
2139.3	11155.7
2140.26	11156.8
2141.22	11153.4
2142.18	11137.1
2143.14	11123.6
2144.1	11107.5
2145.06	11087.3
2146.02	11063.8
2146.98	11041.7
2147.94	11025.3
2148.9	11019.9
2149.86	11012.7
2150.82	11002.5
2151.78	10989.3
2152.74	10974.7
2153.69	10953.3
2154.65	10931.4
2155.61	10910.6
2156.57	10900.2
2157.53	10894.3
2158.48	10892.8
2159.44	10893.1
2160.4	10883
2161.36	10867.1
2162.31	10842
2163.27	10814.3
2164.23	10787.5
2165.18	10769.8
2166.14	10769.8
2167.1	10768
2168.05	10768.5
2169.01	10763.2
2169.96	10746.7
2170.92	10722.8
2171.88	10692.8
2172.83	10667
2173.79	10644.9
2174.74	10629.8
2175.7	10620.7
2176.65	10618
2177.6	10601.2
2178.56	10578.7
2179.51	10564.8
2180.47	10551.9
2181.42	10540.1
2182.38	10533.6
2183.33	10516
2184.28	10494.2
2185.24	10444.9
2186.19	10458.4
2187.14	10476.8
2188.1	10465.1
2189.05	10452.3
2190	10433.8
2190.96	10412.5
2191.91	10413.9
2192.86	10416.2
2193.81	10413
2194.76	10409.2
2195.72	10400.6
2196.67	10388.8
2197.62	10374.1
2198.57	10355.6
2199.52	10334.1
2200.47	10309.6
2201.43	10283.9
2202.38	10265.4
2203.33	10253.7
2204.28	10250.4
2205.23	10243.9
2206.18	10240
2207.13	10237.2
2208.08	10235.7
2209.03	10235.6
2209.98	10227.1
2210.93	10208.2
2211.88	10181.3
2212.83	10165
2213.78	10151.6
2214.73	10149.6
2215.67	10152.1
2216.62	10156.5
2217.57	10157.2
2218.52	10159.8
2219.47	10145.8
2220.42	10125.7
2221.37	10104.6
2222.31	10087.5
2223.26	10073.3
2224.21	10060.7
2225.16	10051.8
2226.1	10046.4
2227.05	10043.3
2228	10042.5
2228.94	10042.7
2229.89	10043.9
2230.84	10041.9
2231.78	10041.3
2232.73	10040.5
2233.68	10033
2234.62	10022.8
2235.57	10006.6
2236.51	9987.81
2237.46	9970.46
2238.41	9953.27
2239.35	9930.67
2240.3	9923.47
2241.24	9936.77
2242.19	9937.95
2243.13	9931.24
2244.07	9926.49
2245.02	9918.17
2245.96	9913.29
2246.91	9911.35
2247.85	9910.4
2248.8	9909.97
2249.74	9909.77
2250.68	9909.25
2251.63	9907.8
2252.57	9905.02
2253.51	9898.68
2254.46	9891.58
2255.4	9884.87
2256.34	9879.69
2257.28	9874.73
2258.23	9870.09
2259.17	9861.84
2260.11	9853.27
2261.05	9847.97
2262	9844.92
2262.94	9834.55
2263.88	9826.58
2264.82	9817.09
2265.76	9808.07
2266.7	9800.63
2267.64	9799.32
2268.58	9797.5
2269.53	9799.12
2270.47	9802.54
2271.41	9801.47
2272.35	9801.49
2273.29	9809.06
2274.23	9804.08
2275.17	9795.27
2276.11	9778.6
2277.05	9768.08
2277.99	9761.15
2278.93	9756.19
2279.86	9752.83
2280.8	9749.68
2281.74	9748.27
2282.68	9749.54
2283.62	9751.64
2284.56	9750.69
2285.5	9747.19
2286.44	9740.37
2287.37	9728.71
2288.31	9711.89
2289.25	9714.07
2290.19	9715.49
2291.12	9710.8
2292.06	9707.74
2293	9704.07
2293.94	9698.06
2294.87	9689.13
2295.81	9677.54
2296.75	9666.06
2297.68	9659.6
2298.62	9663.48
2299.55	9692.94
2300.49	9690.4
2301.43	9663.02
2302.36	9645.92
2303.3	9637.54
2304.23	9626.64
2305.17	9620.04
2306.1	9617.61
2307.04	9616.11
2307.98	9616.49
2308.91	9615.85
2309.84	9611.11
2310.78	9596.74
2311.71	9580.68
2312.65	9566.6
2313.58	9553.26
2314.52	9541.3
2315.45	9527.86
2316.38	9512.03
2317.32	9495.94
2317.72	9489.53
2318.66	9478.79
2319.6	9470.66
2320.54	9464.12
2321.48	9459.44
2322.41	9456.89
2323.35	9456.2
2324.29	9457.22
2325.23	9459.62
2326.16	9447.01
2327.1	9427.83
2328.04	9407.07
2328.97	9386.43
2329.91	9366.58
2330.85	9355.89
2331.78	9347.54
2332.72	9340.61
2333.66	9335.26
2334.59	9330.64
2335.53	9324.27
2336.46	9317.93
2337.4	9312.3
2338.33	9307.37
2339.27	9304.07
2340.2	9305.18
2341.14	9309.91
2342.07	9308.71
2343.01	9307.48
2343.94	9296.19
2344.88	9286.7
2345.81	9275.54
2346.75	9263.79
2347.68	9250.63
2348.61	9240.36
2349.55	9232.6
2350.48	9224.82
2351.41	9214.47
2352.35	9201.84
2353.28	9187.29
2354.21	9168.17
2355.15	9156.42
2356.08	9151.26
2357.01	9153.62
2357.94	9158.88
2358.88	9160.24
2359.81	9156.9
2360.74	9150.58
2361.67	9144.24
2362.6	9137.28
2363.54	9129.54
2364.47	9120.9
2365.4	9115.3
2366.33	9108.99
2367.26	9104.17
2368.19	9102.27
2369.12	9110.55
2370.05	9113.73
2370.98	9112.89
2371.91	9107.53
2372.84	9097.88
2373.77	9092.73
2374.7	9066.84
2375.63	9034.15
2376.56	8999.66
2377.49	8977.87
2378.42	8965.78
2379.35	9003.91
2380.28	9022.31
2381.21	9025.35
2382.14	9025.28
2383.07	9022.51
2384	9016.51
2384.92	9007.33
2385.85	8995.13
2386.78	8980.47
2387.71	8970.9
2388.64	8966.29
2389.56	8965.9
2390.49	8966.37
2391.42	8967.15
2392.35	8964.92
2393.27	8958.96
2394.2	8952.65
2395.13	8945.86
2396.05	8938.45
2396.98	8930.33
2397.91	8921.73
2398.83	8912.81
2399.76	8903.24
2400.69	8892.74
2401.61	8879.58
2402.54	8864.41
2403.46	8850.43
2404.39	8841.27
2405.31	8838.74
2406.24	8836.54
2407.17	8843.93
2408.09	8845.69
2409.01	8842.7
2409.94	8835.03
2410.86	8823.86
2411.79	8807.48
2412.71	8800.39
2413.64	8801.59
2414.56	8804.8
2415.49	8806.67
2416.41	8800.91
2417.33	8792.32
2418.26	8779.23
2419.18	8764.86
2420.1	8750.01
2421.03	8735.19
2421.95	8723.24
2422.87	8716.48
2423.79	8710.03
2424.72	8705.62
2425.64	8703.14
2426.56	8703.16
2427.48	8698.74
2428.41	8686.99
2429.33	8668.67
2430.25	8651.17
2431.17	8635.24
2432.09	8620.48
2433.01	8606.97
2433.93	8594.88
2434.86	8584.33
2435.78	8575.52
2436.7	8568.52
2437.62	8563.02
2438.54	8558.67
2439.46	8554.67
2440.38	8550.95
2441.3	8545.49
2442.22	8533.99
2443.14	8517.72
2444.06	8498.95
2444.98	8475.01
2445.9	8459.5
2446.82	8444.87
2447.73	8432.88
2448.65	8424.98
2449.57	8420.24
2450.49	8419.49
2451.41	8416.36
2452.33	8406.64
2453.25	8397.97
2454.17	8391.03
2455.08	8386.43
2456	8384.25
2456.92	8383.59
2457.84	8384.18
2458.75	8391.25
2459.67	8385.6
2460.59	8372.71
2461.51	8353.13
2462.42	8341.07
2463.34	8333.58
2464.26	8327.44
2465.17	8322.43
2466.09	8317.08
2467	8309.37
2467.92	8300.6
2468.84	8291.19
2469.75	8281.09
2470.67	8270.53
2471.58	8259.6
2472.5	8248.79
2473.42	8237.6
2474.33	8226.18
2475.25	8214.54
2476.16	8203.31
2477.08	8194.41
2477.99	8188.35
2478.9	8185.38
2479.82	8185.31
2480.73	8185.58
2481.65	8187.96
2482.56	8190.33
2483.47	8193.67
2484.39	8196.46
2485.3	8194.49
2486.22	8182.57
2487.13	8165.35
2488.04	8152.43
2488.96	8140.84
2489.87	8131.94
2490.78	8124.41
2491.69	8118.54
2492.61	8113.98
2493.52	8110.06
2494.43	8106.65
2495.34	8099.58
2496.25	8098.34
2497.17	8099.09
2498.08	8099.27
2498.99	8098.03
2499.9	8097.37
2500.81	8095.55
2501.72	8092.83
2502.63	8087.09
2503.55	8077.1
2504.46	8058.55
2505.37	8038
2506.28	8023.39
2507.19	8010.73
2508.1	8002.5
2509.01	8001.57
2509.92	8007.61
2510.83	8008.03
2511.74	8005.29
2512.65	8002.02
2513.56	7995.99
2514.47	7988.2
2515.37	7978.98
2516.28	7969.1
2517.19	7959.33
2518.1	7959
2519.01	7962.02
2519.92	7966.78
2520.83	7985.93
2521.73	7997.81
2522.64	8006.35
2523.55	8002.25
2524.46	7986.84
2525.37	7969.64
2526.27	7946.36
2527.18	7921.13
2528.09	7903.99
2529	7892.97
2529.9	7890.83
2530.81	7885.94
2531.72	7884.37
2532.62	7872.14
2533.53	7861.36
2534.44	7849.09
2535.34	7834.46
2536.25	7824.07
2537.15	7826.52
2538.06	7825.57
2538.96	7824.28
2539.87	7820.1
2540.78	7813.25
2541.68	7799.66
2542.59	7795.61
2543.49	7793.29
2544.4	7793.42
2545.3	7799.49
2546.21	7800.72
2547.11	7800.15
2548.01	7797.38
2548.92	7787.26
2549.82	7771.61
2550.73	7747.12
2551.63	7729.15
2552.53	7713.49
2553.44	7698.76
2554.34	7686.96
2555.24	7676.85
2556.15	7669.59
2557.05	7664.35
2557.95	7661.54
2558.86	7660.84
2559.76	7662.3
2560.66	7665.39
2561.56	7665.3
2562.46	7660.85
2563.37	7648.82
2564.27	7636.46
2565.17	7623.14
2566.07	7611.57
2566.97	7601.64
2567.88	7591.57
2568.78	7581.37
2569.68	7571.17
2570.58	7562.92
2571.48	7551.39
2572.38	7539.39
2573.28	7526.1
2574.18	7512.55
2575.08	7501.31
2575.98	7492.73
2576.88	7493.2
2577.78	7493.31
2578.68	7492.81
2579.58	7492.84
2580.48	7483.71
2581.38	7474.27
2582.28	7464.15
2583.18	7453.34
2584.08	7442.07
2584.98	7429.84
2585.88	7418.3
2586.77	7407.66
2587.67	7399.06
2588.57	7392.21
2589.47	7387.06
2590.37	7383.69
2591.27	7381.93
2592.16	7382.29
2593.06	7383.15
2593.96	7376.85
2594.86	7358.13
2595.75	7346.18
2596.65	7332.25
2597.55	7317.14
2598.45	7308.67
2599.34	7300.66
2600.24	7296.17
2601.13	7293.12
2602.03	7288.74
2602.93	7284.21
2603.82	7271.82
2604.72	7255.24
2605.62	7251.72
2606.51	7262.25
2607.41	7261.88
2608.3	7255.67
2609.2	7245.55
2610.09	7234.6
2610.99	7224.15
2611.88	7213.45
2612.78	7202.78
2613.67	7192.57
2614.57	7182.63
2615.46	7172.64
2616.36	7162.96
2617.25	7153.58
2618.14	7145.1
2619.04	7140.36
2619.93	7138.81
2620.83	7144.22
2621.72	7138.99
2622.61	7132.19
2623.5	7126.13
2624.4	7113.7
2625.29	7106.01
2626.18	7109.32
2627.08	7109.82
2627.97	7113.3
2628.86	7109.25
2629.75	7113.05
2630.65	7109.79
2631.54	7087.5
2632.43	7064.81
2633.32	7042.96
2634.21	7023.96
2635.11	7013.3
2636	7005.15
2636.89	7007.07
2637.78	7011.24
2638.67	7009.24
2639.56	7014.58
2640.45	7009.27
2641.34	7006.63
2642.23	6984.42
2643.12	6965.99
2644.01	6950.09
2644.9	6936.5
2645.79	6924.77
2646.68	6915.17
2647.57	6908.04
2648.46	6899.25
2649.35	6876.32
2650.24	6862.83
2651.13	6849.17
2652.02	6841.81
2652.91	6837.56
2653.8	6835.66
2654.69	6835.9
2655.58	6837.37
2656.46	6839.69
2657.35	6841.46
2658.24	6834.4
2659.13	6822.56
2660.02	6795.15
2660.9	6777.96
2661.79	6761.41
2662.68	6760.24
2663.57	6761.34
2664.45	6759.84
2665.34	6757
2666.23	6759.92
2667.11	6768
2668	6759.79
2668.89	6750.07
2669.77	6743.74
2670.66	6740.94
2671.55	6742.24
2672.43	6747.82
2673.32	6744.96
2674.21	6736.98
2675.09	6729.96
2675.98	6718.87
2676.86	6695.91
2677.75	6681.48
2678.63	6673.49
2679.52	6669.79
2680.4	6668.29
2681.29	6669.48
2682.17	6658.2
2683.06	6645.11
2683.94	6633.7
2684.82	6612.5
2685.71	6597.37
2686.59	6591.34
2687.48	6586.67
2688.36	6580.89
2689.24	6574.23
2690.13	6564.73
2691.01	6554.49
2691.89	6546.02
2692.78	6540.5
2693.66	6538.32
2694.54	6537.74
2695.43	6537.47
2696.31	6536.47
2697.19	6524.06
2698.07	6507.23
2698.96	6498.8
2699.84	6490.12
2700.72	6479.17
2701.6	6470.53
2702.48	6459.35
2703.36	6448.93
2704.25	6438.66
2705.13	6429.01
2706.01	6420.61
2706.89	6415.33
2707.77	6422.99
2708.65	6432
2709.53	6424.43
2710.41	6419.14
2711.29	6410.59
2712.17	6401.41
2713.05	6388.17
2713.93	6381.72
2714.81	6386.34
2715.69	6384.77
2716.57	6380
2717.45	6363.08
2718.33	6345.38
2719.21	6335.93
2720.09	6328.78
2720.97	6327.99
2721.85	6322.38
2722.73	6317.78
2723.61	6314.46
2724.48	6311.51
2725.36	6309.68
2726.24	6308.06
2727.12	6306.53
2728	6305.09
2728.88	6303.11
2729.75	6300.7
2730.63	6289.42
2731.51	6277.27
2732.39	6266.73
2733.26	6257.31
2734.14	6247.96
2735.02	6241.29
2735.89	6235.11
2736.77	6229.63
2737.65	6225.04
2738.52	6219.21
2739.4	6212.48
2740.28	6204.18
2741.15	6199.12
2742.03	6198.01
2742.9	6200.15
2743.78	6200.08
2744.65	6190.57
2745.53	6176.7
2746.41	6160.71
2747.28	6152.05
2748.16	6145.82
2749.03	6142.3
2749.91	6141.08
2750.78	6143.07
2751.66	6147.34
2752.53	6153.78
2753.4	6161.47
2754.28	6162.69
2755.15	6158.53
2756.02	6134.77
2756.9	6108.78
2757.77	6090.89
2758.65	6086.03
2759.52	6097.85
2760.39	6108.34
2761.27	6110.06
2762.14	6105.92
2763.01	6102.41
2763.88	6081.83
2764.76	6060.25
2765.63	6045.75
2766.5	6037.47
2767.37	6033.85
2768.25	6039.67
2769.12	6041.07
2769.99	6034.6
2770.86	6025.56
2771.73	6016.38
2772.61	6007.31
2773.48	5998.61
2774.35	5991.07
2775.22	5983.64
2776.09	5976.3
2776.96	5969.07
2777.83	5961.65
2778.7	5953.97
2779.57	5946.36
2780.44	5940.76
2781.31	5937.05
2782.18	5935.66
2783.05	5939.6
2783.92	5939.13
2784.79	5941.18
2785.66	5940.79
2786.53	5935.41
2787.4	5922.94
2788.27	5913.12
2789.14	5902.61
2790.01	5891.63
2790.88	5880.69
2791.75	5870.95
2792.62	5862.13
2793.48	5854.55
2794.35	5848.02
2795.22	5842.34
2796.09	5837.39
2796.96	5833.45
2797.82	5830.37
2798.69	5827.08
2799.56	5823.83
2800.43	5818.34
2801.29	5811.78
2802.16	5802.45
2803.03	5794.83
2803.9	5787.21
2804.76	5780.48
2805.63	5774.58
2806.5	5769.75
2807.36	5765.85
2808.23	5762.74
2809.09	5760.16
2809.96	5756.02
2810.83	5748.92
2811.69	5735.18
2812.56	5723.8
2813.42	5712.01
2814.29	5699.45
2815.15	5688.73
2816.02	5680.63
2816.88	5678.65
2817.75	5680.81
2818.61	5684.02
2819.48	5687.1
2820.34	5689.03
2821.21	5689.04
2822.07	5686.46
2822.94	5677.52
2823.8	5664.73
2824.66	5653.33
2825.53	5650.18
2826.39	5654.06
2827.26	5655.88
2828.12	5657.39
2828.98	5660.53
2829.85	5662.33
2830.71	5664.84
2831.57	5665.12
2832.43	5660.86
2833.3	5646.61
2834.16	5627.92
2835.02	5611.84
2835.88	5591.95
2836.75	5582.57
2837.61	5578.13
2838.47	5576.56
2839.33	5581.43
2840.19	5589.21
2841.06	5582.48
2841.92	5569.63
2842.78	5558.52
2843.64	5548.88
2844.5	5540.58
2845.36	5533.43
2846.22	5527.9
2847.08	5524.02
2847.94	5522.21
2848.81	5521.88
2849.67	5515.01
2850.53	5508.2
2851.39	5499.63
2852.25	5497.78
2853.11	5502.01
2853.97	5499.4
2854.82	5492.8
2855.68	5483.1
2856.54	5474.51
2857.4	5458.08
2858.26	5446.96
2859.12	5454
2859.98	5463.33
2860.84	5474.37
2861.7	5479.13
2862.56	5466.34
2863.41	5450.6
2864.27	5422.9
2865.13	5411.35
2865.99	5400.23
2866.85	5403.48
2867.7	5407.69
2868.56	5416.39
2869.42	5420
2870.28	5418.89
2871.13	5412.29
2871.99	5405.82
2872.85	5403.19
2873.7	5402.68
2874.56	5403.18
2875.42	5407.78
2876.27	5398.95
2877.13	5388.89
2877.99	5362.62
2878.84	5349.69
2879.7	5332.44
2880.56	5327.15
2881.41	5326.24
2882.27	5322.39
2883.12	5319.64
2883.98	5326.22
2884.83	5319.49
2885.69	5304.06
2886.54	5293.6
2887.4	5289.16
2888.25	5291.15
2889.11	5292.21
2889.96	5289.36
2890.82	5282.12
2891.67	5272.46
2892.52	5265.56
2893.38	5257.89
2894.23	5250.28
2895.09	5243.21
2895.94	5236.53
2896.79	5229.99
2897.65	5223.51
2898.5	5217.06
2899.35	5210.41
2900.21	5202.97
2901.06	5199.77
2901.91	5196.4
2902.76	5193.68
2903.62	5191.39
2904.47	5190
2905.32	5188.67
2906.17	5186.92
2907.03	5179.13
2907.88	5165.83
2908.73	5150.12
2909.58	5140.54
2910.43	5135.87
2911.28	5132.5
2912.14	5131.23
2912.99	5132.41
2913.84	5135.18
2914.69	5141.18
2915.54	5144.98
2916.39	5138.26
2917.24	5122.01
2918.09	5098.04
2918.94	5081.89
2919.79	5071.01
2920.64	5062.35
2921.49	5054.8
2922.34	5061.34
2923.19	5073.43
2924.04	5077.64
2924.89	5074.97
2925.74	5063.58
2926.59	5051.58
2927.44	5042.48
2928.29	5032.97
2929.14	5028.49
2929.98	5025.24
2930.83	5018.58
2931.68	5011.95
2932.53	5002.23
2933.38	4994.92
2934.23	4987.58
2935.07	4980.42
2935.92	4973.31
2936.77	4966.07
2937.62	4958.87
2938.47	4951.77
2939.31	4944.55
2940.16	4938.78
2941.01	4935.17
2941.85	4938.76
2942.7	4944.09
2943.55	4941.04
2944.39	4928.5
2945.24	4915.32
2946.09	4898.76
2946.93	4884.97
2947.78	4873.95
2948.63	4865.97
2949.47	4861.31
2950.32	4865.71
2951.16	4870.48
2952.01	4873.36
2952.85	4876.83
2953.7	4880.9
2954.55	4885.09
2955.39	4885.34
2956.24	4882.3
2957.08	4878.31
2957.92	4872.89
2958.77	4866.34
2959.61	4858.38
2960.46	4849.6
2961.3	4842.29
2962.15	4829.87
2962.99	4816.43
2963.83	4800.05
2964.68	4787.7
2965.52	4778.94
2966.37	4772.49
2967.21	4765.35
2968.05	4760.1
2968.9	4756.92
2969.74	4754.29
2970.58	4750.46
2971.42	4761.46
2972.27	4772.35
2973.11	4783.37
2973.95	4784.76
2974.79	4765.55
2975.64	4730.59
2976.48	4732.69
2977.32	4738.63
2978.16	4745.35
2979	4743.54
2979.85	4742.34
2980.69	4739.89
2981.53	4734.45
2982.37	4727.92
2983.21	4720.86
2984.05	4714.41
2984.89	4710.2
2985.73	4706.67
2986.57	4703.89
2987.41	4701.81
2988.25	4700.45
2989.1	4700
2989.94	4699.7
2990.77	4698.93
2991.62	4697.94
2992.45	4696.76
2993.29	4695.78
2994.13	4693.12
2994.97	4689.89
2995.81	4686.86
2996.65	4683.35
2997.49	4680.21
2998.33	4675.39
2999.17	4627.5
