200.833	22642.1
202.102	22704.9
203.371	22712.1
204.639	22739.6
205.907	22761.3
207.175	22781.6
208.442	22798.5
209.71	22812.6
210.977	22823.8
212.244	22827.9
213.511	22831.4
214.777	22835.6
216.042	22840.9
217.309	22864.6
218.575	22892
219.84	22929.3
221.106	22975
222.371	22998.8
223.635	23015.8
224.9	23036.3
226.165	23071.3
227.429	23141
228.694	23195.7
229.956	23248.7
231.22	23301.8
232.484	23354.1
233.747	23405.8
235.011	23456.6
236.272	23505.7
237.535	23552.8
238.798	23597.4
240.06	23638.9
241.321	23677.4
242.583	23711.8
243.845	23741.7
245.105	23766
246.367	23784.6
247.628	23805.4
248.888	23826.8
250.149	23851.5
251.409	23870.8
252.67	23892.7
253.928	23899
255.189	23903.7
256.447	23908.4
257.707	23912.8
258.966	23917.1
260.224	23927.7
261.483	23944.1
262.742	23966.1
263.999	23992.4
265.257	24017.4
266.514	24044.3
267.772	24072.6
269.028	24102.5
270.286	24133.4
271.543	24163.2
272.799	24207.7
274.056	24249.2
275.311	24275.2
276.568	24265.9
277.823	24268.7
279.079	24288.3
280.333	24319.1
281.589	24348.1
282.843	24390.5
284.099	24434.2
285.352	24474.5
286.607	24508.1
287.86	24531.2
289.114	24554.7
290.368	24575.3
291.621	24592.6
292.875	24607.2
294.127	24619
295.38	24629
296.632	24635
297.884	24644.9
299.137	24679.6
300.388	24711.1
301.641	24740.2
302.891	24766.3
304.142	24790.5
305.394	24812
306.644	24830.9
307.894	24846.5
309.146	24859
310.395	24867.6
311.645	24864.2
312.895	24855.6
314.144	24854.4
315.393	24850.8
316.642	24870.2
317.892	24898
319.14	24933.9
320.388	24967.8
321.637	24999.9
322.885	25018.1
324.132	25035.7
325.38	25050.2
326.628	25062
327.875	25071.3
329.122	25082.7
330.368	25094.6
331.614	25108
332.862	25135.8
334.108	25173.1
335.353	25215.3
336.599	25257.6
337.844	25296.2
339.089	25319.1
340.335	25343.9
341.58	25345.1
342.824	25347.1
344.068	25350.3
345.312	25354.7
346.556	25360.8
347.8	25369
349.043	25379.8
350.286	25389.7
351.53	25405.8
352.774	25425
354.016	25449.5
355.259	25482.8
356.501	25510
357.743	25523
358.985	25532.5
360.227	25538.1
361.468	25542.1
362.709	25543.7
363.95	25546.3
365.191	25546.2
366.432	25545.2
367.672	25544.4
368.912	25545
370.152	25555.3
371.392	25569.5
372.632	25583.4
373.871	25594.9
375.11	25591.8
376.348	25592.5
377.587	25565.5
378.825	25552.6
380.064	25557.7
381.302	25581.8
382.54	25608
383.778	25632.2
385.016	25656.8
386.253	25682.4
387.489	25708.6
388.726	25734.9
389.963	25761.9
391.199	25789.6
392.436	25817.8
393.672	25847.3
394.907	25876.5
396.142	25900.6
397.378	25907.9
398.614	25910.2
399.849	25923
401.082	25936.7
402.317	25951.9
403.552	25967.8
404.786	25985.4
406.019	26002.8
407.253	26019
408.487	26030.5
409.721	26026.2
410.953	26011.2
412.186	26006
413.419	26003.3
414.651	26004.2
415.883	26007.2
417.116	26020.1
418.347	26034.7
419.579	26051.7
420.811	26069
422.041	26080.8
423.272	26085.7
424.504	26089.4
425.733	26090.3
426.964	26089.6
428.194	26086.6
429.424	26086.6
430.654	26101.8
431.883	26115.6
433.113	26145.7
434.341	26154.5
435.571	26157.7
436.799	26157.9
438.028	26152.3
439.257	26143.7
440.484	26151.3
441.713	26181.7
442.94	26209
444.168	26229.2
445.394	26242.9
446.622	26250.1
447.848	26263
449.076	26271.5
450.301	26277
451.528	26277.8
452.754	26299.8
453.979	26357.5
455.205	26355.4
456.43	26332.7
457.656	26310.1
458.88	26313.9
460.106	26365.6
461.33	26405.7
462.554	26434.7
463.779	26447.5
465.002	26424.5
466.225	26416.1
467.45	26409
468.672	26403.2
469.895	26397.6
471.119	26403.1
472.341	26404.8
473.563	26402.1
474.786	26394.9
476.008	26378.8
477.229	26366
478.452	26352.6
479.673	26338.8
480.894	26324.3
482.115	26309.1
483.337	26293.9
484.557	26279
485.777	26264.6
486.997	26253.2
488.218	26243.4
489.438	26259
490.657	26271.2
491.876	26281.9
493.096	26290.8
494.315	26293.8
495.533	26273.9
496.752	26261.7
497.97	26256.5
499.188	26258
500.407	26265.3
501.625	26293.8
502.842	26316.8
504.059	26340.3
505.276	26360.1
506.493	26347.2
507.71	26321.2
508.926	26300.6
510.142	26287.1
511.358	26281.7
512.575	26285.3
513.791	26300.7
515.006	26331.9
516.222	26366.6
517.437	26403.3
518.651	26436.1
519.866	26465.8
521.081	26490.6
522.295	26512.4
523.509	26528.2
524.723	26537.9
525.937	26541.4
527.15	26535.9
528.363	26525.7
529.576	26537.6
530.789	26551.5
532.002	26572.4
533.215	26600
534.426	26636.8
535.638	26562.9
536.85	26567.1
538.061	26597.1
539.273	26633.2
540.484	26641.1
541.695	26614.6
542.906	26578.5
544.117	26538.6
545.327	26506.4
546.537	26525.9
547.747	26599
548.957	26661.2
550.167	26725.2
551.377	26662.7
552.585	26592.4
553.794	26577.1
555.003	26575.8
556.212	26579
557.421	26589.6
558.628	26605.4
559.836	26617.4
561.044	26627.5
562.252	26634.5
563.458	26639
564.666	26637.6
565.873	26633.8
567.08	26628.5
568.286	26625.6
569.493	26621.9
570.699	26618.5
571.904	26616
573.111	26616.1
574.317	26622.9
575.521	26639.8
576.727	26656
577.932	26672.2
579.136	26690.2
580.341	26711.9
581.544	26710.3
582.749	26691.3
583.954	26672.5
585.156	26652.4
586.361	26628.2
587.563	26636.2
588.767	26659.3
589.97	26680.3
591.172	26703
592.375	26723.1
593.577	26721
594.78	26716
595.981	26707.1
597.183	26695.4
598.384	26678.9
599.586	26668.5
600.786	26663.3
601.988	26660.3
603.188	26656.8
604.389	26652.4
605.589	26645.5
606.79	26636.8
607.989	26625
609.188	26607.4
610.389	26589.2
611.587	26571.6
612.787	26553.7
613.986	26535.5
615.184	26517.7
616.383	26499.5
617.581	26481.4
618.78	26462.7
619.977	26442.8
621.174	26418.8
622.373	26404.1
623.57	26392.5
624.766	26383.8
625.964	26375.9
627.16	26370.9
628.356	26366.9
629.554	26353.4
630.749	26335.3
631.945	26290.2
633.14	26274.9
634.337	26273.6
635.532	26316.8
636.726	26319
637.921	26329.9
639.117	26245.5
640.311	26220.2
641.505	26210.8
642.699	26215.4
643.892	26219.6
645.087	26248
646.28	26271.2
647.473	26279.1
648.666	26287
649.859	26289
651.051	26285.6
652.245	26286.7
653.437	26286.9
654.629	26287.5
655.821	26288.6
657.012	26290.3
658.204	26292.5
659.395	26295.6
660.586	26300.1
661.777	26307.7
662.967	26318
664.158	26332
665.349	26350.1
666.539	26368.5
667.729	26389.1
668.919	26404.3
670.109	26391.9
671.298	26382.5
672.487	26367.8
673.676	26328.4
674.865	26306.4
676.053	26293.8
677.242	26325.4
678.43	26355.9
679.616	26371.2
680.804	26379.9
681.992	26385.9
683.179	26387.4
684.366	26386.2
685.554	26379.7
686.74	26369.9
687.927	26359.1
689.114	26349.7
690.3	26352.9
691.486	26347
692.671	26337.6
693.856	26323.6
695.042	26297.9
696.227	26270.7
697.413	26245.4
698.598	26221.7
699.781	26200.2
700.966	26180.6
702.15	26162.7
703.334	26147
704.518	26134.9
705.701	26125.8
706.885	26121
708.068	26123.1
709.252	26130
710.433	26137.8
711.616	26147.2
712.799	26149.4
713.98	26145.2
715.163	26138.9
716.345	26129.8
717.527	26116.7
718.707	26102.5
719.889	26089.6
721.071	26078.8
722.25	26071.3
723.432	26065.6
724.611	26062.4
725.792	26061.6
726.972	26063.3
728.151	26067
729.332	26073.2
730.512	26081.3
731.69	26093.1
732.87	26107.1
734.048	26143.2
735.227	26189.2
736.405	26266.1
737.584	26203.7
738.761	26195.3
739.94	26216.5
741.117	26205.7
742.295	26193.7
743.471	26184.9
744.649	26183
745.825	26187.4
747.003	26197.9
748.179	26213.5
749.356	26235.2
750.531	26264.1
751.708	26298.2
752.883	26312.1
754.059	26283.7
755.234	26251.1
756.409	26218.4
757.585	26203.1
758.759	26202.9
759.934	26205.4
761.108	26189.1
762.282	26178.4
763.456	26167.8
764.63	26157.5
765.803	26148.2
766.977	26139.3
768.15	26133.3
769.323	26126
770.496	26113
771.668	26095.6
772.841	26072.2
774.014	26057.9
775.185	26045
776.357	26034.7
777.528	26025.9
778.701	26022.5
779.872	26018.3
781.042	26010.3
782.213	25997.7
783.383	25979.9
784.555	25959.7
785.725	25937.1
786.895	25913.8
788.064	25886.5
789.234	25856.3
790.404	25822.9
791.573	25788.2
792.742	25753.7
793.911	25724.2
795.08	25739.5
796.248	25766.2
797.416	25788
798.584	25804
799.753	25814.4
800.921	25819
802.088	25825.9
803.256	25799.7
804.423	25770
805.59	25734.4
806.756	25715.9
807.923	25712.6
809.089	25737.6
810.256	25748.2
811.422	25756.1
812.587	25762.8
813.753	25768.8
814.918	25776
816.084	25785.2
817.249	25795.6
818.414	25806.7
819.578	25818.7
820.743	25832.1
821.907	25846
823.072	25857.7
824.236	25864
825.399	25865
826.562	25860.8
827.725	25850.1
828.889	25838.1
830.052	25823.2
831.215	25805.7
832.377	25787.2
833.54	25790
834.701	25799.9
835.863	25805.6
837.025	25810.3
838.187	25815
839.349	25821.8
840.51	25826.9
841.67	25834.2
842.831	25840.4
843.992	25845.5
845.153	25842.3
846.312	25835.8
847.473	25821.4
848.633	25802.5
849.793	25778.3
850.951	25750
852.111	25716.5
853.27	25697.4
854.428	25719.3
855.588	25732.3
856.747	25732.3
857.904	25718
859.063	25689.7
860.221	25653
861.378	25611.7
862.536	25584.7
863.694	25563.5
864.85	25547.6
866.008	25532.3
867.164	25515
868.321	25499.2
869.478	25461.6
870.633	25420.3
871.79	25393
872.945	25387.9
874.101	25380.7
875.256	25374
876.412	25367.3
877.566	25362.2
878.722	25358.1
879.876	25344
881.031	25328.1
882.185	25312
883.34	25294.7
884.493	25275.3
885.647	25254.7
886.8	25236.6
887.954	25226
889.107	25251.3
890.261	25264.2
891.413	25273.1
892.565	25269.6
893.718	25262.9
894.87	25238.2
896.023	25208.7
897.174	25193.6
898.326	25174.2
899.478	25168
900.629	25173.1
901.779	25191.7
902.931	25217.7
904.081	25243
905.231	25256.5
906.383	25262.3
907.532	25257.6
908.682	25248.2
909.831	25238.9
910.982	25228.1
912.131	25228.9
913.28	25216.1
914.429	25231.5
915.578	25248.3
916.727	25243.4
917.875	25240.5
919.023	25240.5
920.171	25242.5
921.32	25245.2
922.467	25250.5
923.614	25276.6
924.761	25294.5
925.908	25314.5
927.055	25313.9
928.203	25302.9
929.349	25280.2
930.496	25253.6
931.642	25236.1
932.787	25220.3
933.933	25206.6
935.079	25197.8
936.224	25191.8
937.369	25191
938.514	25195.9
939.659	25210.2
940.804	25263.5
941.948	25271.2
943.092	25272.4
944.236	25244.3
945.38	25209.6
946.524	25151.5
947.667	25113.7
948.811	25085.2
949.954	25066
951.097	25054.4
952.24	25044.3
953.383	25040.5
954.525	25048.4
955.667	25043
956.81	25020.5
957.952	24994.3
959.093	24978.1
960.235	24967.7
961.376	24960.9
962.516	24956.2
963.658	24954.2
964.798	24954.1
965.939	24953.3
967.08	24937
968.22	24917.3
969.359	24898.2
970.499	24881.3
971.639	24867.7
972.779	24855.6
973.918	24845.9
975.056	24838.2
976.195	24832.9
977.334	24829.3
978.473	24827.8
979.61	24825
980.749	24822.4
981.887	24820.6
983.024	24831.5
984.162	24840.2
985.3	24847
986.437	24854.7
987.573	24863
988.711	24870.5
989.848	24878
990.983	24879.4
992.12	24867.9
993.255	24856
994.392	24850.7
995.528	24850.9
996.662	24858.4
997.798	24860.4
998.933	24857.2
1000.07	24844.7
1001.2	24805.3
1002.34	24757.8
1003.47	24757.3
1004.61	24763
1005.74	24765.3
1006.87	24777.8
1008.01	24798.4
1009.14	24814.1
1010.27	24824.3
1011.41	24828.8
1012.54	24824.8
1013.67	24816.1
1014.81	24802.9
1015.94	24788.3
1017.07	24772.8
1018.2	24756.2
1019.33	24764.7
1020.47	24768.8
1021.6	24771.7
1022.73	24771.9
1023.86	24775.2
1024.99	24759
1026.12	24736.9
1027.25	24709
1028.38	24680.3
1029.51	24654.5
1030.64	24628.7
1031.77	24604.3
1032.9	24581.7
1034.03	24561.5
1035.16	24544
1036.29	24530.4
1037.42	24520.4
1038.55	24513.5
1039.67	24510.9
1040.8	24510.8
1041.93	24474.6
1043.06	24439.5
1044.19	24403.4
1045.31	24368.2
1046.44	24333.8
1047.57	24323.2
1048.69	24329
1049.82	24333.4
1050.95	24323.3
1052.08	24298.9
1053.2	24260.5
1054.33	24255.4
1055.45	24243.4
1056.58	24228.7
1057.7	24217.1
1058.83	24206.9
1059.95	24198.9
1061.08	24186.4
1062.2	24161.4
1063.33	24195.3
1064.45	24253.4
1065.58	24250.2
1066.7	24229.2
1067.83	24183.8
1068.95	24139.7
1070.07	24151.3
1071.2	24158.6
1072.32	24166.5
1073.44	24176.8
1074.56	24180.3
1075.69	24181.2
1076.81	24177.8
1077.93	24171.7
1079.05	24159.9
1080.17	24146.5
1081.3	24133.9
1082.42	24124.9
1083.54	24121.8
1084.66	24120.1
1085.78	24122.1
1086.9	24126.6
1088.02	24134
1089.14	24143.2
1090.26	24152
1091.38	24161.2
1092.5	24172.3
1093.62	24184
1094.74	24197
1095.86	24209
1096.98	24200.3
1098.1	24190.5
1099.22	24175.2
1100.34	24154
1101.45	24125.8
1102.57	24092.4
1103.69	24073.6
1104.81	24071.2
1105.93	24075.8
1107.04	24083.2
1108.16	24085
1109.28	24084.7
1110.4	24068.3
1111.51	24063.4
1112.63	24057.3
1113.75	24048.7
1114.86	24032
1115.98	24004.9
1117.09	23971.1
1118.21	23937.6
1119.32	23910.6
1120.44	23886.8
1121.55	23865
1122.67	23847.4
1123.78	23832.9
1124.9	23823.6
1126.01	23820.1
1127.13	23821.6
1128.24	23818.6
1129.35	23805.2
1130.47	23785
1131.58	23759.1
1132.7	23727.2
1133.81	23692.6
1134.92	23658.3
1136.03	23630.3
1137.15	23601.2
1138.26	23567.2
1139.37	23522.6
1140.48	23470.5
1141.59	23430.1
1142.71	23403.2
1143.82	23389.3
1144.93	23389.4
1146.04	23402.6
1147.15	23559.1
1148.26	23290.1
1149.37	23350.6
1150.48	23339.1
1151.59	23321.4
1152.7	23312.7
1153.81	23298.1
1154.92	23286.6
1156.03	23277
1157.14	23269.5
1158.25	23263.6
1159.36	23259.7
1160.47	23257.4
1161.58	23260
1162.68	23255.5
1163.79	23239
1164.9	23221.4
1166.01	23212.6
1167.12	23208.9
1168.22	23212
1169.33	23216.7
1170.44	23224.8
1171.55	23235.3
1172.65	23249.6
1173.76	23265.1
1174.87	23276.7
1175.97	23280.8
1177.08	23248.9
1178.18	23206.6
1179.29	23231
1180.4	23228.8
1181.5	23224.8
1182.61	23217.1
1183.71	23215.6
1184.82	23216.4
1185.92	23219.8
1187.02	23225.5
1188.13	23233.6
1189.23	23243.8
1190.34	23256.2
1191.44	23270.3
1192.54	23285.4
1193.65	23293.2
1194.75	23290.7
1195.85	23286
1196.96	23269.4
1198.06	23258.4
1199.16	23257
1200.26	23270.9
1201.37	23281.8
1202.47	23282.3
1203.57	23281.8
1204.67	23278.2
1205.77	23270.6
1206.87	23259.8
1207.97	23244.7
1209.08	23226.5
1210.18	23204.8
1211.28	23181.6
1212.38	23170
1213.48	23156
1214.58	23162.1
1215.68	23171.1
1216.78	23167.2
1217.88	23161.3
1218.98	23150.1
1220.07	23130.9
1221.17	23105.6
1222.27	23092.9
1223.37	23085.4
1224.47	23077.4
1225.57	23067.9
1226.66	23057
1227.76	23044.7
1228.86	23033.7
1229.96	23021.7
1231.06	23007.1
1232.15	22991.1
1233.25	22972.9
1234.35	22954
1235.44	22934.5
1236.54	22913.8
1237.63	22892.1
1238.73	22869.3
1239.83	22844.9
1240.92	22818.9
1242.02	22795
1243.11	22774.5
1244.21	22774.7
1245.3	22762.5
1246.4	22750.9
1247.49	22731.1
1248.59	22711.4
1249.68	22695.5
1250.78	22683.2
1251.87	22692.1
1252.96	22700.8
1254.06	22708.1
1255.15	22711.9
1256.24	22712.7
1257.34	22713.4
1258.43	22713
1259.52	22713
1260.62	22714.3
1261.71	22710.5
1262.8	22701.5
1263.89	22672.3
1264.98	22654.5
1266.08	22645.2
1267.17	22649.4
1268.26	22616.2
1269.35	22740.2
1270.44	22901.1
1271.53	22715.6
1272.62	22642.7
1273.71	22628.2
1274.8	22633.6
1275.89	22628.1
1276.98	22630.8
1278.07	22646.7
1279.16	22657.5
1280.25	22671.5
1281.34	22681.9
1282.43	22678.6
1283.52	22640.9
1284.61	22666.1
1285.69	22690.7
1286.78	22695
1287.87	22672.3
1288.96	22653.6
1290.05	22642.8
1291.13	22638.9
1292.22	22645.2
1293.31	22657.6
1294.4	22676.2
1295.48	22700.2
1296.57	22724.8
1297.66	22739.9
1298.74	22730.6
1299.83	22713.8
1300.92	22691.1
1302	22667.2
1303.09	22644.7
1304.17	22627.2
1305.26	22647.2
1306.34	22659.8
1307.43	22669
1308.51	22674.2
1309.6	22671.9
1310.68	22661.8
1311.76	22649
1312.85	22632.9
1313.93	22615.4
1315.02	22597.1
1316.1	22582.4
1317.18	22572.7
1318.27	22569.1
1319.35	22566.1
1320.43	22560.6
1321.52	22553.2
1322.6	22533.7
1323.68	22516.3
1324.76	22503.8
1325.85	22496.9
1326.93	22491.8
1328.01	22493
1329.09	22496.7
1330.17	22492.5
1331.25	22486.7
1332.33	22474.2
1333.41	22454.5
1334.49	22436.7
1335.58	22418.4
1336.65	22400.5
1337.74	22384.2
1338.82	22369.6
1339.89	22355.5
1340.97	22340.5
1342.05	22328
1343.13	22318.2
1344.21	22313.4
1345.29	22309.1
1346.37	22305.3
1347.45	22299.8
1348.53	22290.4
1349.6	22281.1
1350.68	22274.9
1351.76	22270
1352.84	22269.1
1353.92	22245.3
1354.99	22286.4
1356.07	22304.3
1357.15	22300.9
1358.22	22294.2
1359.3	22291.5
1360.38	22286.8
1361.45	22283.9
1362.53	22282.2
1363.61	22283.8
1364.68	22287.6
1365.76	22294.7
1366.83	22304.7
1367.91	22296
1368.98	22287.7
1370.06	22264.6
1371.13	22235.6
1372.21	22212.4
1373.28	22201.8
1374.35	22209.6
1375.43	22227.3
1376.5	22246.4
1377.58	22260.5
1378.65	22233.9
1379.72	22213.4
1380.8	22194.6
1381.87	22178.3
1382.94	22166
1384.01	22155.6
1385.09	22146.7
1386.16	22138.8
1387.23	22132.8
1388.3	22127.9
1389.38	22123.4
1390.45	22119.1
1391.52	22114.5
1392.59	22111
1393.66	22108.5
1393.92	22106.9
1395	22107.9
1396.07	22109.1
1397.15	22108.5
1398.22	22099.2
1399.3	22091.7
1400.38	22079.8
1401.45	22065.7
1402.53	22053.1
1403.6	22043.6
1404.68	22046.8
1405.75	22046.1
1406.82	22040.8
1407.9	22031.8
1408.97	22020.9
1410.05	22005.8
1411.12	21987.1
1412.19	21965.1
1413.27	21940.5
1414.34	21912.9
1415.41	21895.6
1416.49	21918.2
1417.56	21938
1418.63	21965.8
1419.7	21978.2
1420.78	21973.7
1421.85	21953.6
1422.92	21918.5
1423.99	21866.7
1425.06	21839.9
1426.14	21825.2
1427.21	21841
1428.28	21856.1
1429.35	21858.5
1430.42	21847.2
1431.49	21787.5
1432.56	21750.6
1433.63	21733.7
1434.7	21713.1
1435.77	21721
1436.84	21731.1
1437.91	21756.4
1438.98	21775.8
1440.05	21796.6
1441.12	21794.2
1442.18	21767.8
1443.25	21744.9
1444.32	21729.2
1445.39	21718.8
1446.46	21719.3
1447.53	21718.2
1448.59	21713.3
1449.66	21704.2
1450.73	21692.3
1451.8	21680.4
1452.86	21667.7
1453.93	21657.7
1455	21653.2
1456.06	21651.1
1457.13	21651
1458.2	21655.5
1459.26	21661.7
1460.33	21676.1
1461.39	21691.3
1462.46	21703.4
1463.52	21710.3
1464.59	21706.3
1465.65	21706.2
1466.72	21703
1467.78	21696.2
1468.85	21687.2
1469.91	21675.6
1470.98	21662.1
1472.04	21647.1
1473.1	21634.3
1474.17	21632.9
1475.23	21631.4
1476.3	21633.1
1477.36	21631.5
1478.42	21618.6
1479.48	21602.6
1480.55	21591.8
1481.61	21580.6
1482.67	21566.8
1483.73	21554.2
1484.8	21542.2
1485.86	21531.2
1486.92	21522.2
1487.98	21516
1489.04	21513.1
1490.1	21511
1491.17	21511.3
1492.23	21512.3
1493.29	21505.7
1494.35	21492
1495.41	21464.3
1496.47	21435.7
1497.53	21404.9
1498.59	21382.9
1499.65	21369.6
1500.71	21377.9
1501.77	21413.6
1502.83	21430.6
1503.88	21441.6
1504.94	21424.1
1506	21346.4
1507.06	21315
1508.12	21288.4
1509.18	21309.2
1510.23	21302.2
1511.29	21291.5
1512.35	21272.1
1513.41	21247.5
1514.47	21216.1
1515.52	21191.7
1516.58	21188.8
1517.64	21191.1
1518.69	21202
1519.75	21213.1
1520.81	21218.5
1521.86	21217.2
1522.92	21195.1
1523.97	21170.4
1525.03	21139.3
1526.08	21106.4
1527.14	21085.8
1528.2	21070.4
1529.25	21066.6
1530.31	21081.9
1531.36	21078.5
1532.42	21077.6
1533.47	21064.2
1534.52	21058.9
1535.58	21048.1
1536.63	21043.5
1537.69	21041.2
1538.74	21040.8
1539.79	21051.1
1540.84	21054.1
1541.9	21053.7
1542.95	21043.9
1544	21020.9
1545.06	20999
1546.11	20980.1
1547.16	20966.8
1548.21	20963.4
1549.27	20965.4
1550.32	20977.8
1551.37	20978.3
1552.42	20975.8
1553.47	20970.4
1554.52	20962.3
1555.57	20944.1
1556.62	20929.8
1557.67	20929
1558.72	20931.7
1559.77	20934.9
1560.82	20938.4
1561.87	20942.9
1562.92	20947.6
1563.97	20955.5
1565.02	20963.5
1566.07	20971.9
1567.12	20978.6
1568.17	20972.4
1569.22	20963.8
1570.27	20954.2
1571.32	20939.1
1572.36	20921.6
1573.41	20903.1
1574.46	20888.3
1575.51	20875.4
1576.56	20856.1
1577.6	20852
1578.65	20867.5
1579.7	20884.2
1580.74	20907.5
1581.79	20870.4
1582.84	20856.4
1583.88	20844.1
1584.93	20832.2
1585.98	20818.2
1587.02	20798.5
1588.07	20790.1
1589.11	20792.6
1590.16	20797.6
1591.2	20796.4
1592.25	20792.9
1593.29	20790.7
1594.34	20784.3
1595.38	20775.1
1596.43	20763.9
1597.47	20747.1
1598.52	20690.2
1599.56	20639.9
1600.6	20605
1601.65	20592.9
1602.69	20598.2
1603.73	20619.2
1604.78	20618.7
1605.82	20603.6
1606.86	20591.4
1607.91	20563.9
1608.95	20525.9
1609.99	20496.6
1611.03	20474.8
1612.08	20478.7
1613.12	20485
1614.16	20493
1615.2	20494.1
1616.24	20485.8
1617.28	20476.4
1618.32	20466.2
1619.36	20454.3
1620.41	20441.1
1621.45	20425.8
1622.49	20410.3
1623.53	20393.5
1624.57	20374.5
1625.61	20352.3
1626.65	20322.6
1627.69	20291.9
1628.73	20265.3
1629.76	20257.3
1630.8	20265.3
1631.84	20271.8
1632.88	20261.9
1633.92	20240
1634.96	20206.4
1636	20160.7
1637.03	20137.4
1638.07	20118.7
1639.11	20107
1640.15	20099.8
1641.19	20093.9
1642.22	20088.4
1643.26	20080.7
1644.3	20073.3
1645.33	20064.9
1646.37	20055.6
1647.41	20045.3
1648.44	20034.1
1649.48	20021.4
1650.52	20007.3
1651.55	19987.2
1652.59	19967.4
1653.62	19953.1
1654.66	19952.2
1655.69	19959.7
1656.73	19971.7
1657.76	19966.6
1658.8	19953.4
1659.83	19942.2
1660.87	19904.6
1661.9	19850.9
1662.93	19840.7
1663.97	19855.5
1665	19873.7
1666.04	19897.6
1667.07	19893.2
1668.1	19881.3
1669.14	19829.7
1670.17	19814.3
1671.2	19805.6
1672.23	19803.6
1673.27	19817.1
1674.3	19830
1675.33	19832.4
1676.36	19826.4
1677.39	19819.3
1678.43	19807.5
1679.46	19780.4
1680.49	19774.6
1681.52	19786.8
1682.55	19784.4
1683.58	19777.3
1684.61	19741.6
1685.64	19707.1
1686.67	19679.4
1687.7	19662.3
1688.73	19651.9
1689.76	19639.2
1690.79	19630.4
1691.82	19624.8
1692.85	19623.8
1693.88	19625.6
1694.91	19633.6
1695.94	19640.2
1696.97	19620.6
1698	19600.2
1699.02	19580.9
1700.05	19568.1
1701.08	19559.6
1702.11	19555.1
1703.14	19555.2
1704.16	19556.5
1705.19	19555.1
1706.22	19549.1
1707.25	19539
1708.27	19525.2
1709.3	19507.8
1710.33	19487
1711.35	19463.2
1712.38	19437.5
1713.41	19418.8
1714.43	19400.6
1715.46	19384.2
1716.48	19369
1717.51	19355.7
1718.53	19343
1719.56	19327.3
1720.58	19300.4
1721.61	19294.5
1722.63	19301.4
1723.66	19321.7
1724.68	19329.1
1725.71	19318.2
1726.73	19284.4
1727.75	19258.1
1728.78	19240.1
1729.8	19219.1
1730.83	19211.8
1731.85	19198.5
1732.87	19172.8
1733.89	19106.6
1734.92	19089.3
1735.94	19085.5
1736.96	19087.2
1737.98	19092.2
1739.01	19102.4
1740.03	19120.1
1741.05	19124.6
1742.07	19113.3
1743.09	19088.9
1744.12	19060.1
1745.14	19039.8
1746.16	19014.5
1747.18	18983
1748.2	18960
1749.22	18954.1
1750.24	18950.3
1751.26	18946.3
1752.28	18943.5
1753.3	18944.3
1754.32	18947.2
1755.34	18945.5
1756.36	18943
1757.38	18939.8
1758.4	18936.4
1759.42	18934.2
1760.44	18932
1761.45	18927.1
1762.47	18914.6
1763.49	18885.6
1764.51	18857.7
1765.53	18841
1766.55	18838.4
1767.56	18834.7
1768.58	18830.6
1769.6	18820.8
1770.61	18800.5
1771.63	18783.3
1772.65	18772.4
1773.67	18763.2
1774.68	18754.1
1775.7	18745.5
1776.72	18738.5
1777.73	18728.3
1778.75	18691
1779.76	18668
1780.78	18656.3
1781.79	18656.5
1782.81	18665.7
1783.83	18668.6
1784.84	18662.5
1785.85	18648.7
1786.87	18633.6
1787.88	18615
1788.9	18593.3
1789.91	18567.8
1790.93	18538.5
1791.94	18510.5
1792.95	18490.1
1793.97	18494.7
1794.98	18487
1796	18481.8
1797.01	18479.1
1798.02	18479.9
1799.03	18483.6
1800.05	18464.2
1801.06	18450.2
1802.07	18440.1
1803.08	18433.8
1804.1	18429.9
1805.11	18420.6
1806.12	18410.9
1807.13	18399.5
1808.14	18385.9
1809.15	18371
1810.17	18347
1811.18	18319.6
1812.19	18292.4
1813.2	18266.1
1814.21	18244.1
1815.22	18219.1
1816.23	18207.1
1817.24	18221.5
1818.25	18237.4
1819.26	18244.5
1820.27	18230.5
1821.28	18183.9
1822.29	18147.7
1823.3	18121.4
1824.3	18099.2
1825.31	18078.7
1826.32	18059.8
1827.33	18042
1828.34	18025.9
1829.35	18011.2
1830.35	17997.3
1831.36	17982.6
1832.37	17967.5
1833.38	17955.2
1834.38	17945.6
1835.39	17937.6
1836.4	17933.6
1837.41	17930.9
1838.41	17928.6
1839.42	17922.6
1840.43	17911.5
1841.43	17897.7
1842.44	17881
1843.44	17861.3
1844.45	17838.8
1845.46	17812.8
1846.46	17783.8
1847.47	17757.4
1848.47	17739.1
1849.48	17740.6
1850.48	17751.5
1851.49	17745.4
1852.49	17738.2
1853.49	17727.9
1854.5	17714.5
1855.5	17689.5
1856.51	17670.7
1857.51	17649.8
1858.51	17630.5
1859.52	17608
1860.52	17586.2
1861.52	17569.3
1862.53	17566.9
1863.53	17592.7
1864.53	17583.2
1865.54	17546.3
1866.54	17496.5
1867.54	17457.2
1868.54	17474.8
1869.54	17480.8
1870.55	17483.7
1871.55	17481.6
1872.55	17473.4
1873.55	17461.5
1874.55	17443.9
1875.55	17421.9
1876.55	17395.6
1877.55	17366.6
1878.55	17383.8
1879.55	17406.3
1880.56	17414.1
1881.55	17402.8
1882.56	17325.6
1883.55	17287.8
1884.55	17271.6
1885.55	17252.8
1886.55	17235.1
1887.55	17218.4
1888.55	17204.3
1889.55	17195.4
1890.55	17190.2
1891.55	17188.3
1892.55	17187.9
1893.54	17184.6
1894.54	17176.3
1895.54	17152.4
1896.54	17146.4
1897.54	17133.9
1898.53	17130.2
1899.53	17137.1
1900.53	17138.8
1901.52	17133.4
1902.52	17123.4
1903.52	17111
1904.51	17101.2
1905.51	17054.4
1906.51	17027.6
1907.5	17016.6
1908.5	17010.2
1909.49	17001.1
1910.49	16989.7
1911.49	16976.6
1912.48	16961.3
1913.48	16946.3
1914.47	16929.3
1915.46	16910
1916.46	16887.7
1917.45	16851
1918.45	16806.2
1919.44	16789.4
1920.44	16782.8
1921.43	16821.4
1922.43	16819.2
1923.42	16810.9
1924.41	16791.5
1925.41	16763.3
1926.4	16739.5
1927.39	16714.9
1928.38	16693
1929.38	16678.9
1930.37	16668
1931.36	16660.2
1932.35	16655.6
1933.35	16655.1
1934.34	16657.2
1935.33	16646.3
1936.32	16630.3
1937.31	16610.4
1938.3	16593.3
1939.29	16582.2
1940.29	16571.1
1941.28	16561.5
1942.27	16552.5
1943.26	16545.1
1944.25	16538.1
1945.24	16525.7
1946.23	16508.2
1947.22	16478.3
1948.21	16455.3
1949.2	16431.9
1950.19	16408.7
1951.18	16386.1
1952.17	16358.2
1953.16	16350.5
1954.14	16349.7
1955.13	16347.1
1956.12	16348.5
1957.11	16303.8
1958.1	16265.4
1959.09	16257.1
1960.07	16287.5
1961.06	16312.3
1962.05	16305
1963.04	16281.4
1964.02	16254.5
1965.01	16225.6
1966	16194.1
1966.99	16157.3
1967.97	16129.1
1968.96	16113.3
1969.95	16104.9
1970.93	16101.6
1971.92	16085.7
1972.9	16054.7
1973.89	16024.5
1974.88	16005.6
1975.86	15987.8
1976.85	15976.7
1977.83	15968.7
1978.82	15966.4
1979.8	15967.6
1980.79	15962.9
1981.77	15957.3
1982.76	15951.9
1983.74	15946.2
1984.72	15942.7
1985.71	15938.7
1986.69	15932.1
1987.67	15921.2
1988.66	15905.2
1989.64	15883.9
1990.62	15857.9
1991.61	15838.1
1992.59	15821.5
1993.57	15816.7
1994.56	15812.4
1995.54	15813.1
1996.52	15811.6
1997.5	15807.9
1998.49	15790.9
1999.47	15775.3
2000.45	15762.6
2001.43	15750.9
2002.41	15739.9
2003.39	15730.1
2004.38	15721.2
2005.36	15711.8
2006.34	15700.6
2007.32	15687.9
2008.3	15672.3
2009.28	15655.6
2010.26	15640
2011.24	15621.9
2012.22	15610.1
2013.2	15594.6
2014.18	15560.5
2015.16	15528
2016.14	15494.3
2017.12	15468.2
2018.1	15453.1
2019.07	15440.2
2020.05	15428.9
2021.03	15419.7
2022.01	15411.7
2022.99	15405
2023.97	15399.2
2024.95	15394.1
2025.92	15388.8
2026.9	15380
2027.88	15368.5
2028.86	15353.9
2029.83	15336.8
2030.81	15317.5
2031.79	15297.7
2032.76	15277.2
2033.74	15263.2
2034.72	15245.6
2035.69	15228.1
2036.67	15209.4
2037.65	15191
2038.62	15174.9
2039.6	15159.7
2040.57	15145.2
2041.55	15130.7
2042.52	15116.4
2043.5	15101.2
2044.47	15081.7
2045.45	15063.2
2046.42	15042.7
2047.4	15043.4
2048.37	15044.1
2049.35	15042.1
2050.32	15021.8
2051.29	14964.5
2052.27	14937.7
2053.24	14918.8
2054.21	14909
2055.19	14900.4
2056.16	14905.4
2057.13	14905.3
2058.11	14898.7
2059.08	14880.4
2060.05	14856.5
2061.02	14826.3
2062	14805.8
2062.97	14781.6
2063.94	14782.6
2064.91	14802.2
2065.89	14815.6
2066.86	14800.9
2067.83	14774.1
2068.8	14736.3
2069.77	14696.3
2070.74	14676.2
2071.71	14661.9
2072.68	14653.5
2073.65	14654.9
2074.62	14657.8
2075.59	14664.5
2076.56	14667
2077.53	14668
2078.5	14664.9
2079.47	14658
2080.44	14641.1
2081.41	14623.2
2082.38	14596.9
2083.35	14575.4
2084.32	14551.7
2085.29	14528.8
2086.26	14506.3
2087.23	14485.4
2088.19	14465.2
2089.16	14446.6
2090.13	14429.1
2091.1	14413
2092.07	14397.8
2093.03	14383.6
2094	14369.7
2094.97	14353.9
2095.94	14336.3
2096.9	14317.2
2097.87	14295.7
2098.84	14271.2
2099.8	14243.9
2100.77	14223.7
2101.74	14221.2
2102.7	14227
2103.67	14232.7
2104.63	14237.1
2105.6	14239.9
2106.56	14241.8
2107.53	14222.4
2108.49	14192.8
2109.46	14159.3
2110.42	14134.9
2111.39	14112.6
2112.35	14095.1
2113.32	14084.6
2114.28	14077
2115.25	14072.9
2116.21	14071.5
2117.17	14068.6
2118.14	14060.3
2119.1	14036.8
2120.07	14012
2121.03	13978.1
2121.99	13953.9
2122.96	13936.5
2123.92	13925.6
2124.88	13919.1
2125.84	13919.7
2126.81	13922.6
2127.77	13910.5
2128.73	13881.6
2129.69	13858
2130.65	13836.4
2131.62	13823.2
2132.58	13812.5
2133.54	13804.8
2134.5	13800.2
2135.46	13796.5
2136.42	13790.6
2137.38	13776.6
2138.34	13750.4
2139.3	13727.2
2140.26	13699.4
2141.22	13696.6
2142.18	13701.3
2143.14	13697.3
2144.1	13640.9
2145.06	13618.4
2146.02	13617.9
2146.98	13620.2
2147.94	13617.9
2148.9	13611.4
2149.86	13595.9
2150.82	13577
2151.78	13557.5
2152.74	13522.2
2153.69	13495.2
2154.65	13488.7
2155.61	13485.7
2156.57	13481.1
2157.53	13476.8
2158.48	13470.1
2159.44	13460.4
2160.4	13451.6
2161.36	13441.6
2162.31	13433.3
2163.27	13420.9
2164.23	13387.7
2165.18	13345.4
2166.14	13315.2
2167.1	13303.1
2168.05	13305.1
2169.01	13310.7
2169.96	13320.7
2170.92	13274.9
2171.88	13247.2
2172.83	13220.2
2173.79	13189.2
2174.74	13153.9
2175.7	13119.5
2176.65	13095.9
2177.6	13079.1
2178.56	13062.9
2179.51	13050.5
2180.47	13035.7
2181.42	13015.5
2182.38	12993.8
2183.33	12969.2
2184.28	12948.8
2185.24	12937.6
2186.19	12930.2
2187.14	12923.8
2188.1	12916.9
2189.05	12910.6
2190	12905.1
2190.96	12897.1
2191.91	12880.8
2192.86	12857.4
2193.81	12830.9
2194.76	12808.5
2195.72	12788.9
2196.67	12771.2
2197.62	12755.3
2198.57	12742.2
2199.52	12731
2200.47	12722.3
2201.43	12715.6
2202.38	12710.7
2203.33	12706.7
2204.28	12703.9
2205.23	12702.7
2206.18	12698.5
2207.13	12690.7
2208.08	12674.2
2209.03	12654.4
2209.98	12628.1
2210.93	12597.1
2211.88	12562.4
2212.83	12528.5
2213.78	12523.6
2214.73	12546
2215.67	12552.8
2216.62	12516
2217.57	12503.1
2218.52	12491.1
2219.47	12476.1
2220.42	12462
2221.37	12444.2
2222.31	12425.3
2223.26	12412.8
2224.21	12407.1
2225.16	12409.3
2226.1	12406.1
2227.05	12403.5
2228	12399.8
2228.94	12394.5
2229.89	12385.9
2230.84	12379.2
2231.78	12373.8
2232.73	12374.5
2233.68	12374.2
2234.62	12362.6
2235.57	12335.9
2236.51	12266.4
2237.46	12359.2
2238.41	12344.5
2239.35	12330.6
2240.3	12317.3
2241.24	12303
2242.19	12287.2
2243.13	12268.8
2244.07	12251.8
2245.02	12238.1
2245.96	12229.8
2246.91	12221
2247.85	12222
2248.8	12227.3
2249.74	12225.4
2250.68	12218.8
2251.63	12213.9
2252.57	12209.5
2253.51	12206
2254.46	12200.6
2255.4	12194.8
2256.34	12187.8
2257.28	12181.5
2258.23	12175.1
2259.17	12170.8
2260.11	12169.1
2261.05	12166.1
2262	12160.4
2262.94	12153.2
2263.88	12143.2
2264.82	12136.6
2265.76	12141
2266.7	12147.4
2267.64	12145.6
2268.58	12139.7
2269.53	12131.6
2270.47	12118.1
2271.41	12099.5
2272.35	12080.9
2273.29	12060.1
2274.23	12052.6
2275.17	12048.6
2276.11	12054.7
2277.05	12060.3
2277.99	12066.6
2278.93	12075.7
2279.86	12077.9
2280.8	12067.4
2281.74	12051.8
2282.68	12035.7
2283.62	12022
2284.56	12011.9
2285.5	12004.6
2286.44	12000.8
2287.37	12002.2
2288.31	12006.5
2289.25	12011.5
2290.19	12016.4
2291.12	12019.7
2292.06	12016.3
2293	12004.8
2293.94	11986.6
2294.87	11972.3
2295.81	11965.5
2296.75	11966.9
2297.68	11965.4
2298.62	11960.3
2299.55	11954.8
2300.49	11949.1
2301.43	11938.8
2302.36	11926
2303.3	11915.3
2304.23	11905.9
2305.17	11897.2
2306.1	11888.3
2307.04	11880
2307.98	11872.3
2308.91	11865.2
2309.84	11859.1
2310.78	11854.2
2311.71	11846.7
2312.65	11833.3
2313.58	11812
2314.52	11787.9
2315.45	11765.7
2316.38	11746.3
2317.32	11728.1
2317.72	11720.2
2318.66	11712.6
2319.6	11707.4
2320.54	11704.6
2321.48	11703.3
2322.41	11704.5
2323.35	11705.1
2324.29	11694.6
2325.23	11684.9
2326.16	11672.6
2327.1	11657.4
2328.04	11639.6
2328.97	11619
2329.91	11595.8
2330.85	11570.5
2331.78	11548.1
2332.72	11541.1
2333.66	11532.8
2334.59	11530.9
2335.53	11533.4
2336.46	11530.9
2337.4	11527
2338.33	11523.5
2339.27	11518.6
2340.2	11514
2341.14	11508.9
2342.07	11503.3
2343.01	11497
2343.94	11489.7
2344.88	11481.4
2345.81	11469.4
2346.75	11452.7
2347.68	11437.5
2348.61	11422.2
2349.55	11412.7
2350.48	11402.1
2351.41	11426
2352.35	11439.9
2353.28	11448
2354.21	11369.5
2355.15	11321.2
2356.08	11307.3
2357.01	11310.2
2357.94	11306.3
2358.88	11310.2
2359.81	11315.6
2360.74	11319.8
2361.67	11322.5
2362.6	11323.3
2363.54	11321.8
2364.47	11314.1
2365.4	11305.6
2366.33	11292.5
2367.26	11278.2
2368.19	11260.2
2369.12	11241.5
2370.05	11226.2
2370.98	11215.2
2371.91	11206.4
2372.84	11203.7
2373.77	11203
2374.7	11210
2375.63	11220.6
2376.56	11228.6
2377.49	11234.5
2378.42	11227.3
2379.35	11219.3
2380.28	11202.3
2381.21	11187.8
2382.14	11180.6
2383.07	11178.1
2384	11175.6
2384.92	11171.4
2385.85	11167
2386.78	11159.2
2387.71	11147.1
2388.64	11128.6
2389.56	11109.6
2390.49	11089.2
2391.42	11074.2
2392.35	11068
2393.27	11069.6
2394.2	11072.3
2395.13	11078.7
2396.05	11080.4
2396.98	11073.1
2397.91	11048.3
2398.83	11028.9
2399.76	11013.6
2400.69	11003.1
2401.61	10996.9
2402.54	10996.1
2403.46	11001.3
2404.39	11009.2
2405.31	11016.4
2406.24	11016.9
2407.17	11008.8
2408.09	10989.3
2409.01	10965.3
2409.94	10945
2410.86	10926.2
2411.79	10906.9
2412.71	10889.2
2413.64	10872.5
2414.56	10858.1
2415.49	10846.3
2416.41	10837.3
2417.33	10834.2
2418.26	10834
2419.18	10838.4
2420.1	10840.6
2421.03	10837.2
2421.95	10818.4
2422.87	10802.9
2423.79	10787.8
2424.72	10773.8
2425.64	10760.8
2426.56	10746.6
2427.48	10732.8
2428.41	10719.6
2429.33	10707.6
2430.25	10696.5
2431.17	10686.4
2432.09	10677.7
2433.01	10670.1
2433.93	10664.8
2434.86	10660.4
2435.78	10655
2436.7	10646.4
2437.62	10628.5
2438.54	10606.7
2439.46	10589.5
2440.38	10581.2
2441.3	10578.9
2442.22	10574.5
2443.14	10570.5
2444.06	10558
2444.98	10551.7
2445.9	10527.4
2446.82	10504.3
2447.73	10491.5
2448.65	10471.2
2449.57	10470.9
2450.49	10469.4
2451.41	10463.6
2452.33	10453.9
2453.25	10443.3
2454.17	10427.6
2455.08	10410.4
2456	10392.5
2456.92	10375.8
2457.84	10360.6
2458.75	10349.8
2459.67	10340.5
2460.59	10333.7
2461.51	10330.1
2462.42	10328.9
2463.34	10330.4
2464.26	10333.1
2465.17	10330.1
2466.09	10317.6
2467	10301.8
2467.92	10283.5
2468.84	10267.4
2469.75	10267.9
2470.67	10270.1
2471.58	10266.6
2472.5	10261.2
2473.42	10247.1
2474.33	10229.8
2475.25	10208.2
2476.16	10182.7
2477.08	10152.7
2477.99	10124.5
2478.9	10134.6
2479.82	10144.8
2480.73	10162.2
2481.65	10172.8
2482.56	10175.5
2483.47	10170
2484.39	10155.4
2485.3	10145.8
2486.22	10127.4
2487.13	10118.1
2488.04	10114
2488.96	10114.4
2489.87	10113.8
2490.78	10111.2
2491.69	10106.8
2492.61	10099.8
2493.52	10093.2
2494.43	10082.3
2495.34	10065.2
2496.25	10046.3
2497.17	10032.5
2498.08	10020.9
2498.99	10016.4
2499.9	10023.5
2500.81	10017
2501.72	10009.6
2502.63	10001.4
2503.55	9992.3
2504.46	9982.57
2505.37	9971.81
2506.28	9978
2507.19	9979.55
2508.1	9980.86
2509.01	9971.67
2509.92	9962.6
2510.83	9959.18
2511.74	9958.14
2512.65	9956.74
2513.56	9951
2514.47	9942.59
2515.37	9932.52
2516.28	9920.85
2517.19	9908.15
2518.1	9897.61
2519.01	9911.22
2519.92	9926.76
2520.83	9939.45
2521.73	9937.41
2522.64	9920.85
2523.55	9894.47
2524.46	9871.99
2525.37	9856.77
2526.27	9845.43
2527.18	9838.29
2528.09	9828.13
2529	9818.48
2529.9	9808.92
2530.81	9799.08
2531.72	9789.2
2532.62	9778.44
2533.53	9767.62
2534.44	9756.71
2535.34	9747.36
2536.25	9747.04
2537.15	9745.96
2538.06	9743.53
2538.96	9736.17
2539.87	9727.03
2540.78	9715.8
2541.68	9700.98
2542.59	9683.74
2543.49	9663.66
2544.4	9642.69
2545.3	9642.5
2546.21	9643.18
2547.11	9641.39
2548.01	9637.54
2548.92	9632.9
2549.82	9626.27
2550.73	9617.79
2551.63	9607.4
2552.53	9595.36
2553.44	9581.45
2554.34	9565.32
2555.24	9546.82
2556.15	9519.01
2557.05	9506.55
2557.95	9526.17
2558.86	9519.86
2559.76	9511.15
2560.66	9502
2561.56	9491.82
2562.46	9480.13
2563.37	9466.64
2564.27	9451.09
2565.17	9433.23
2566.07	9413.36
2566.97	9394.27
2567.88	9384.82
2568.78	9385.15
2569.68	9395.1
2570.58	9398.5
2571.48	9399.48
2572.38	9373.97
2573.28	9365.59
2574.18	9361.56
2575.08	9357.23
2575.98	9358.7
2576.88	9359.24
2577.78	9358.32
2578.68	9351.56
2579.58	9335.98
2580.48	9316.25
2581.38	9295.44
2582.28	9273.8
2583.18	9252.68
2584.08	9231.64
2584.98	9215.8
2585.88	9200.55
2586.77	9187.22
2587.67	9175.22
2588.57	9164.77
2589.47	9156.61
2590.37	9151.64
2591.27	9151.7
2592.16	9150.18
2593.06	9147.94
2593.96	9145.58
2594.86	9144.1
2595.75	9143.7
2596.65	9136.88
2597.55	9121.6
2598.45	9095.47
2599.34	9081.98
2600.24	9070.5
2601.13	9059.32
2602.03	9051.59
2602.93	9047.02
2603.82	9043.25
2604.72	9040.54
2605.62	9036.34
2606.51	9029.24
2607.41	9020.68
2608.3	9011.48
2609.2	9001.52
2610.09	8991.92
2610.99	8983.84
2611.88	8979.71
2612.78	8979.8
2613.67	8975.89
2614.57	8970.67
2615.46	8965.38
2616.36	8959.08
2617.25	8952.37
2618.14	8944.54
2619.04	8935.35
2619.93	8924.89
2620.83	8912.95
2621.72	8901.23
2622.61	8889.72
2623.5	8878.79
2624.4	8870.78
2625.29	8861.92
2626.18	8853.42
2627.08	8845.37
2627.97	8837.87
2628.86	8830.96
2629.75	8824.51
2630.65	8818.74
2631.54	8813.53
2632.43	8809.6
2633.32	8804.18
2634.21	8787.09
2635.11	8767.62
2636	8744.33
2636.89	8717.63
2637.78	8687.22
2638.67	8659.26
2639.56	8636.85
2640.45	8642.77
2641.34	8654.62
2642.23	8707.6
2643.12	8675.68
2644.01	8588.63
2644.9	8573.32
2645.79	8563.19
2646.68	8592.3
2647.57	8613.91
2648.46	8606.72
2649.35	8525.59
2650.24	8522.1
2651.13	8505.85
2652.02	8502
2652.91	8500.63
2653.8	8503.3
2654.69	8500.16
2655.58	8496.4
2656.46	8493.34
2657.35	8488.89
2658.24	8483.73
2659.13	8477.29
2660.02	8469.95
2660.9	8458.77
2661.79	8445.57
2662.68	8434.06
2663.57	8422.64
2664.45	8410.99
2665.34	8399.06
2666.23	8390.65
2667.11	8384.77
2668	8386.65
2668.89	8384.43
2669.77	8380.66
2670.66	8378.44
2671.55	8376.27
2672.43	8375.52
2673.32	8375.12
2674.21	8375.1
2675.09	8374.33
2675.98	8365.08
2676.86	8354.33
2677.75	8341.02
2678.63	8323.49
2679.52	8304
2680.4	8283.48
2681.29	8265.41
2682.17	8251.11
2683.06	8243.47
2683.94	8238.97
2684.82	8235.2
2685.71	8231.75
2686.59	8227.52
2687.48	8222.12
2688.36	8216.55
2689.24	8210.47
2690.13	8203.87
2691.01	8196.74
2691.89	8189.48
2692.78	8181.29
2693.66	8167.42
2694.54	8139.66
2695.43	8113.99
2696.31	8109.4
2697.19	8114.03
2698.07	8093.28
2698.96	8073.24
2699.84	8051.31
2700.72	8040.63
2701.6	8030.1
2702.48	8032.82
2703.36	8047.58
2704.25	8057.96
2705.13	8063.64
2706.01	8060.36
2706.89	8035.61
2707.77	8018.71
2708.65	8005.59
2709.53	7993.21
2710.41	7978.77
2711.29	7965.12
2712.17	7951.23
2713.05	7936.96
2713.93	7922.75
2714.81	7907.64
2715.69	7896.24
2716.57	7898.76
2717.45	7897.13
2718.33	7900.7
2719.21	7902.69
2720.09	7895.76
2720.97	7889.9
2721.85	7875.7
2722.73	7864.69
2723.61	7858.33
2724.48	7853.45
2725.36	7848.36
2726.24	7843.81
2727.12	7840.35
2728	7836.37
2728.88	7831.86
2729.75	7826.25
2730.63	7818.12
2731.51	7811.63
2732.39	7806.57
2733.26	7801.2
2734.14	7795.69
2735.02	7790.3
2735.89	7784.58
2736.77	7772.33
2737.65	7756.67
2738.52	7742.21
2739.4	7721.5
2740.28	7710.8
2741.15	7705.74
2742.03	7713.12
2742.9	7719.7
2743.78	7723.08
2744.65	7717.98
2745.53	7711.55
2746.41	7704.04
2747.28	7696.85
2748.16	7688.2
2749.03	7678.43
2749.91	7667.38
2750.78	7655.27
2751.66	7641.97
2752.53	7627.43
2753.4	7611.84
2754.28	7602.33
2755.15	7602.71
2756.02	7608.35
2756.9	7618.73
2757.77	7618.37
2758.65	7604.39
2759.52	7589.59
2760.39	7570.21
2761.27	7559.6
2762.14	7562.38
2763.01	7565.27
2763.88	7561.86
2764.76	7557.72
2765.63	7549.76
2766.5	7539.25
2767.37	7524.07
2768.25	7506.32
2769.12	7486.84
2769.99	7473.31
2770.86	7461.21
2771.73	7449.49
2772.61	7439.31
2773.48	7433.89
2774.35	7436.85
2775.22	7444.91
2776.09	7454.23
2776.96	7459.08
2777.83	7451.09
2778.7	7443.27
2779.57	7428.01
2780.44	7413.87
2781.31	7404.57
2782.18	7399.51
2783.05	7395.93
2783.92	7384.32
2784.79	7371.35
2785.66	7356.01
2786.53	7341.96
2787.4	7330.44
2788.27	7319.44
2789.14	7309.82
2790.01	7301.63
2790.88	7295.03
2791.75	7290.13
2792.62	7287.01
2793.48	7286.43
2794.35	7287.65
2795.22	7292.07
2796.09	7299.17
2796.96	7309.9
2797.82	7307.21
2798.69	7291.49
2799.56	7272.19
2800.43	7251.26
2801.29	7234.2
2802.16	7212.71
2803.03	7199.25
2803.9	7186.42
2804.76	7187.28
2805.63	7190.55
2806.5	7192.73
2807.36	7196.7
2808.23	7195.98
2809.09	7195.72
2809.96	7188.48
2810.83	7179.01
2811.69	7168.78
2812.56	7156.3
2813.42	7152.51
2814.29	7147.98
2815.15	7142.17
2816.02	7128.02
2816.88	7115.77
2817.75	7103.15
2818.61	7085.5
2819.48	7074.86
2820.34	7070.6
2821.21	7067.89
2822.07	7078.94
2822.94	7085.2
2823.8	7084.96
2824.66	7085.35
2825.53	7081.45
2826.39	7073.89
2827.26	7065.6
2828.12	7058.31
2828.98	7049.33
2829.85	7040
2830.71	7029.61
2831.57	7018.98
2832.43	7008.47
2833.3	6999.11
2834.16	6999.35
2835.02	6988.92
2835.88	6979.02
2836.75	6969.05
2837.61	6959.06
2838.47	6948.04
2839.33	6938.68
2840.19	6936.62
2841.06	6927.39
2841.92	6919.63
2842.78	6910.11
2843.64	6886.54
2844.5	6880.29
2845.36	6877.88
2846.22	6881.54
2847.08	6893.75
2847.94	6905.05
2848.81	6911.33
2849.67	6908.99
2850.53	6897.13
2851.39	6881.52
2852.25	6868.66
2853.11	6857.52
2853.97	6843.38
2854.82	6830.84
2855.68	6816.24
2856.54	6804.25
2857.4	6800.18
2858.26	6802.2
2859.12	6811.67
2859.98	6817.08
2860.84	6817.55
2861.7	6814.2
2862.56	6809.8
2863.41	6803.99
2864.27	6796.83
2865.13	6788.29
2865.99	6778.74
2866.85	6768.34
2867.7	6758.09
2868.56	6748.75
2869.42	6739.57
2870.28	6731.03
2871.13	6722.81
2871.99	6714.88
2872.85	6705.96
2873.7	6693.49
2874.56	6690.91
2875.42	6691.92
2876.27	6694.5
2877.13	6696.91
2877.99	6694.6
2878.84	6693.3
2879.7	6689.26
2880.56	6677.1
2881.41	6663.05
2882.27	6637.99
2883.12	6628.1
2883.98	6625.62
2884.83	6627.76
2885.69	6629.86
2886.54	6626.02
2887.4	6618.33
2888.25	6609.43
2889.11	6598.4
2889.96	6584.3
2890.82	6567.59
2891.67	6550.59
2892.52	6534.97
2893.38	6523.82
2894.23	6515.68
2895.09	6511.37
2895.94	6507.65
2896.79	6504.95
2897.65	6502.79
2898.5	6501.09
2899.35	6499.17
2900.21	6498.28
2901.06	6497.61
2901.91	6497
2902.76	6494.89
2903.62	6487.8
2904.47	6477.48
2905.32	6464.54
2906.17	6449.77
2907.03	6433.13
2907.88	6417.75
2908.73	6408.29
2909.58	6403.04
2910.43	6400.74
2911.28	6399.19
2912.14	6395.04
2912.99	6392.56
2913.84	6389.63
2914.69	6386.56
2915.54	6382.84
2916.39	6378.22
2917.24	6371.35
2918.09	6363.14
2918.94	6354.07
2919.79	6344.69
2920.64	6335.29
2921.49	6327.03
2922.34	6320.5
2923.19	6315.13
2924.04	6310.73
2924.89	6307.43
2925.74	6304.83
2926.59	6303.91
2927.44	6292.8
2928.29	6278.15
2929.14	6262.66
2929.98	6246.11
2930.83	6236
2931.68	6230.8
2932.53	6225.49
2933.38	6222.03
2934.23	6220.7
2935.07	6218.78
2935.92	6210.37
2936.77	6202.34
2937.62	6193.52
2938.47	6182.95
2939.31	6172.98
2940.16	6169.23
2941.01	6169.05
2941.85	6171.46
2942.7	6168.95
2943.55	6164.43
2944.39	6157.47
2945.24	6149.82
2946.09	6138.5
2946.93	6126.15
2947.78	6115.08
2948.63	6106.54
2949.47	6103.01
2950.32	6103.26
2951.16	6101.78
2952.01	6099.06
2952.85	6093.35
2953.7	6085.98
2954.55	6077.56
2955.39	6067.4
2956.24	6058.09
2957.08	6050.36
2957.92	6048.13
2958.77	6044.43
2959.61	6038.53
2960.46	6031.68
2961.3	6024.69
2962.15	6019.81
2962.99	6015.55
2963.83	6012.08
2964.68	6009.6
2965.52	6008.06
2966.37	6007.51
2967.21	6008.05
2968.05	6009.61
2968.9	6004.83
2969.74	5986.05
2970.58	5968.42
2971.42	5954.83
2972.27	5941.77
2973.11	5930.16
2973.95	5915.71
2974.79	5902.46
2975.64	5889.58
2976.48	5880.59
2977.32	5876.6
2978.16	5874.22
2979	5875.53
2979.85	5879.76
2980.69	5888.62
2981.53	5896.08
2982.37	5891.01
2983.21	5888.17
2984.05	5889.78
2984.89	5889.18
2985.73	5887.95
2986.57	5883.5
2987.41	5878.74
2988.25	5873.4
2989.1	5868.52
2989.94	5863.34
2990.77	5855.14
2991.62	5845.42
2992.45	5834.89
2993.29	5822.74
2994.13	5808.62
2994.97	5792.03
2995.81	5785.71
2996.65	5785.82
2997.49	5802.41
2998.33	5822.98
2999.17	5815.72
