200.833	23155.1
202.102	23158.6
203.371	23164.5
204.639	23176.3
205.907	23187
207.175	23198.6
208.442	23225.4
209.71	23251.4
210.977	23274.6
212.244	23298.9
213.511	23315.6
214.777	23326.8
216.042	23342.5
217.309	23361.8
218.575	23393.8
219.84	23431.6
221.106	23477.8
222.371	23526.9
223.635	23578.4
224.9	23631.8
226.165	23685.4
227.429	23736.6
228.694	23786.6
229.956	23833.1
231.22	23870.5
232.484	23909.3
233.747	23946.9
235.011	23980.5
236.272	24016.4
237.535	24055.6
238.798	24097
240.06	24142.5
241.321	24177
242.583	24206.5
243.845	24235
245.105	24261.7
246.367	24287.2
247.628	24310.7
248.888	24339.2
250.149	24364.7
251.409	24388.2
252.67	24410.1
253.928	24427.2
255.189	24435.7
256.447	24449.5
257.707	24473.8
258.966	24497.2
260.224	24541.2
261.483	24567.8
262.742	24577.3
263.999	24577.1
265.257	24583.5
266.514	24591.6
267.772	24606.5
269.028	24618.3
270.286	24639
271.543	24664
272.799	24709.6
274.056	24730.3
275.311	24754.5
276.568	24774.3
277.823	24803
279.079	24841.5
280.333	24882.9
281.589	24935.6
282.843	24980.7
284.099	25021.7
285.352	25059
286.607	25092.1
287.86	25121.2
289.114	25146.1
290.368	25166.9
291.621	25183.4
292.875	25195.8
294.127	25204.2
295.38	25210.2
296.632	25211.6
297.884	25224.4
299.137	25244.1
300.388	25259.8
301.641	25257.1
302.891	25263.7
304.142	25272
305.394	25334
306.644	25382.5
307.894	25357.3
309.146	25321.2
310.395	25327.7
311.645	25349.1
312.895	25370.6
314.144	25406.3
315.393	25427.4
316.642	25447.5
317.892	25468.2
319.14	25486.1
320.388	25502.1
321.637	25515.9
322.885	25528.1
324.132	25538.8
325.38	25556.9
326.628	25585.4
327.875	25613.5
329.122	25642.5
330.368	25670.4
331.614	25695.7
332.862	25720.3
334.108	25744.7
335.353	25768.5
336.599	25792.4
337.844	25816.3
339.089	25840.7
340.335	25861.7
341.58	25878.8
342.824	25888.4
344.068	25898.5
345.312	25929.3
346.556	25966.3
347.8	26009.6
349.043	26022.9
350.286	26024.5
351.53	26021.3
352.774	26010.3
354.016	26010.1
355.259	26023.6
356.501	26021.8
357.743	26022.6
358.985	26020.3
360.227	26016.9
361.468	26001.9
362.709	26006.3
363.95	26005.9
365.191	26027.4
366.432	26057.6
367.672	26088.1
368.912	26106
370.152	26110.1
371.392	26100.8
372.632	26106.2
373.871	26117.1
375.11	26163.8
376.348	26164.6
377.587	26162.1
378.825	26156
380.064	26157.6
381.302	26165.9
382.54	26180.1
383.778	26198.9
385.016	26222.4
386.253	26248.8
387.489	26277.2
388.726	26307.4
389.963	26334.1
391.199	26362.6
392.436	26389.9
393.672	26414.9
394.907	26438.8
396.142	26458.1
397.378	26473.3
398.614	26483.9
399.849	26491.7
401.082	26500.4
402.317	26510.6
403.552	26523
404.786	26536.4
406.019	26552
407.253	26570.3
408.487	26592.2
409.721	26615.2
410.953	26635.1
412.186	26638.8
413.419	26642.3
414.651	26642.8
415.883	26642.1
417.116	26636.6
418.347	26647.4
419.579	26678.9
420.811	26713.2
422.041	26735
423.272	26734.9
424.504	26711.2
425.733	26686.1
426.964	26661.6
428.194	26647.8
429.424	26644.1
430.654	26650.5
431.883	26661.4
433.113	26667.4
434.341	26680.1
435.571	26694.7
436.799	26714.1
438.028	26733.2
439.257	26751.3
440.484	26768.7
441.713	26785.8
442.94	26803.9
444.168	26823.2
445.394	26842.5
446.622	26861.4
447.848	26880.5
449.076	26891.6
450.301	26888.4
451.528	26891.1
452.754	26894.9
453.979	26899.9
455.205	26906.6
456.43	26913.9
457.656	26925.6
458.88	26937.7
460.106	26950.6
461.33	26960.7
462.554	26952.4
463.779	26945.7
465.002	26938.6
466.225	26932.4
467.45	26927.2
468.672	26929.3
469.895	26932.7
471.119	26937.1
472.341	26940.5
473.563	26943.2
474.786	26944
476.008	26944.8
477.229	26944.5
478.452	26943.4
479.673	26940.4
480.894	26928.6
482.115	26903.7
483.337	26853.8
484.557	26856.9
485.777	26859.9
486.997	26865.2
488.218	26882.2
489.438	26890.5
490.657	26894.7
491.876	26882.6
493.096	26866.5
494.315	26843.1
495.533	26815.3
496.752	26805.5
497.97	26837.6
499.188	26854.5
500.407	26870.5
501.625	26881.6
502.842	26888.1
504.059	26887.9
505.276	26884
506.493	26875.7
507.71	26863.5
508.926	26847.7
510.142	26841.9
511.358	26858.5
512.575	26897.4
513.791	26946.5
515.006	26992.7
516.222	27030.6
517.437	27059.5
518.651	27070.5
519.866	27082.2
521.081	27052.9
522.295	27009.2
523.509	27015.9
524.723	27022.8
525.937	27091.3
527.15	27098.6
528.363	27084.3
529.576	27082.5
530.789	27095.8
532.002	27122.8
533.215	27152
534.426	27171.6
535.638	27184.6
536.85	27192.3
538.061	27174.5
539.273	27171.3
540.484	27167.7
541.695	27168.5
542.906	27170.8
544.117	27174
545.327	27175.8
546.537	27176.1
547.747	27170.5
548.957	27167.5
550.167	27165.3
551.377	27166.6
552.585	27169
553.794	27171.6
555.003	27172.6
556.212	27173.5
557.421	27174.2
558.628	27175.3
559.836	27175.9
561.044	27185.9
562.252	27202.6
563.458	27212.7
564.666	27217.3
565.873	27216.4
567.08	27211.1
568.286	27200.8
569.493	27188
570.699	27189.3
571.904	27191.5
573.111	27198.8
574.317	27204.3
575.521	27208.4
576.727	27210.3
577.932	27210.2
579.136	27207.9
580.341	27202.8
581.544	27196.1
582.749	27195.9
583.954	27217
585.156	27218.8
586.361	27225.5
587.563	27226.7
588.767	27206.8
589.97	27193.9
591.172	27181.6
592.375	27189.8
593.577	27203.1
594.78	27220.7
595.981	27235.4
597.183	27245.9
598.384	27255.7
599.586	27261
600.786	27262.1
601.988	27257.1
603.188	27247.1
604.389	27227.4
605.589	27210.4
606.79	27195
607.989	27200.7
609.188	27196.8
610.389	27187
611.587	27157.3
612.787	27120
613.986	27073.9
615.184	27028.2
616.383	27009.1
617.581	27018
618.78	27051.4
619.977	27045.5
621.174	27028
622.373	26977.9
623.57	26899.8
624.766	26874.2
625.964	26862.6
627.16	26862.9
628.356	26865.3
629.554	26887.3
630.749	26892.5
631.945	26885.2
633.14	26870.8
634.337	26861.3
635.532	26855.7
636.726	26854.9
637.921	26855.7
639.117	26855.2
640.311	26856
641.505	26858.2
642.699	26860.8
643.892	26863.8
645.087	26866.8
646.28	26869.2
647.473	26862
648.666	26844.6
649.859	26829.6
651.051	26789.8
652.245	26775.1
653.437	26772.5
654.629	26777.8
655.821	26800.1
657.012	26830.4
658.204	26867.3
659.395	26893.5
660.586	26916.8
661.777	26913.9
662.967	26905.2
664.158	26903.5
665.349	26899.5
666.539	26891.5
667.729	26885.7
668.919	26880.6
670.109	26877.5
671.298	26876.9
672.487	26880.6
673.676	26892.2
674.865	26902
676.053	26912.7
677.242	26924.6
678.43	26937.3
679.616	26950.2
680.804	26962.5
681.992	26972.2
683.179	26975
684.366	26953
685.554	26934.2
686.74	26911.7
687.927	26889
689.114	26873.2
690.3	26862.7
691.486	26858.6
692.671	26859.2
693.856	26855.6
695.042	26849.9
696.227	26825.3
697.413	26800.4
698.598	26768.2
699.781	26739
700.966	26724
702.15	26704.1
703.334	26696.8
704.518	26702.5
705.701	26700.6
706.885	26686.9
708.068	26662.5
709.252	26630.9
710.433	26612.9
711.616	26603
712.799	26601.3
713.98	26604.8
715.163	26613.9
716.345	26628.3
717.527	26627.3
718.707	26629.1
719.889	26626.3
721.071	26606.3
722.25	26602.8
723.432	26605.6
724.611	26608
725.792	26610.3
726.972	26610.5
728.151	26610
729.332	26607.9
730.512	26619.1
731.69	26634.4
732.87	26652.6
734.048	26669.9
735.227	26684.6
736.405	26697
737.584	26691.6
738.761	26685.6
739.94	26677.9
741.117	26661.8
742.295	26660.4
743.471	26665.1
744.649	26674
745.825	26687.9
747.003	26706.4
748.179	26721
749.356	26745.2
750.531	26764.1
751.708	26775
752.883	26758.6
754.059	26764.8
755.234	26763.6
756.409	26761.2
757.585	26760.6
758.759	26754.4
759.934	26733.9
761.108	26722
762.282	26714
763.456	26704.4
764.63	26693.3
765.803	26681.2
766.977	26668.1
768.15	26654.3
769.323	26639.9
770.496	26624.4
771.668	26607.5
772.841	26587
774.014	26567.2
775.185	26546.9
776.357	26526.8
777.528	26508.6
778.701	26492.8
779.872	26478.5
781.042	26465.5
782.213	26453.9
783.383	26443.4
784.555	26433.9
785.725	26425.6
786.895	26417.8
788.064	26409
789.234	26391.6
790.404	26371.4
791.573	26345.9
792.742	26325.7
793.911	26304.4
795.08	26291.7
796.248	26286.9
797.416	26277.8
798.584	26269.3
799.753	26258.5
800.921	26246.7
802.088	26219.3
803.256	26195.2
804.423	26171.5
805.59	26164.4
806.756	26185.4
807.923	26196.8
809.089	26208.3
810.256	26220.6
811.422	26233.8
812.587	26247
813.753	26262.3
814.918	26277.3
816.084	26295.3
817.249	26317.9
818.414	26325.7
819.578	26327.8
820.743	26321.9
821.907	26310.1
823.072	26293.5
824.236	26270.7
825.399	26253.5
826.562	26251.3
827.725	26259.8
828.889	26264.2
830.052	26277.6
831.215	26289.4
832.377	26297.1
833.54	26312.1
834.701	26314.9
835.863	26316.1
837.025	26315
838.187	26311.9
839.349	26306.8
840.51	26300.7
841.67	26291.9
842.831	26280.4
843.992	26270.3
845.153	26261.4
846.312	26254.2
847.473	26249.1
848.633	26245.9
849.793	26246.2
850.951	26240.4
852.111	26226.7
853.27	26194.7
854.428	26176.8
855.588	26162.5
856.747	26146.3
857.904	26130.5
859.063	26116.1
860.221	26101.8
861.378	26086.7
862.536	26069.5
863.694	26049.7
864.85	26020.5
866.008	25983.4
867.164	25954.9
868.321	25940.9
869.478	25936.6
870.633	25932.1
871.79	25908.2
872.945	25879.4
874.101	25846.4
875.256	25817.2
876.412	25789.7
877.566	25769.1
878.722	25763
879.876	25762.3
881.031	25756.6
882.185	25752.7
883.34	25752.6
884.493	25753.6
885.647	25753.8
886.8	25749.5
887.954	25740.9
889.107	25724
890.261	25711
891.413	25699.2
892.565	25683
893.718	25678.3
894.87	25682.4
896.023	25690.4
897.174	25690.2
898.326	25684.3
899.478	25666.6
900.629	25652.1
901.779	25650.4
902.931	25653.6
904.081	25663.2
905.231	25694.5
906.383	25738.1
907.532	25768
908.682	25768.8
909.831	25754.1
910.982	25730.4
912.131	25696.1
913.28	25680.4
914.429	25671.8
915.578	25662.6
916.727	25674.9
917.875	25691.9
919.023	25703
920.171	25707.9
921.32	25707.7
922.467	25705.8
923.614	25699.6
924.761	25686.6
925.908	25671.4
927.055	25656
928.203	25649.4
929.349	25652.3
930.496	25658.9
931.642	25671
932.787	25688.5
933.933	25713.8
935.079	25743.3
936.224	25761.6
937.369	25748.6
938.514	25725.7
939.659	25706.5
940.804	25692.1
941.948	25669.4
943.092	25646.2
944.236	25622.4
945.38	25599.5
946.524	25578.9
947.667	25562.8
948.811	25562.9
949.954	25557.1
951.097	25542.6
952.24	25519.3
953.383	25484.9
954.525	25444
955.667	25410
956.81	25373.2
957.952	25348.1
959.093	25338.8
960.235	25339.1
961.376	25344.6
962.516	25357.6
963.658	25334.7
964.798	25287.7
965.939	25304.9
967.08	25322.3
968.22	25335
969.359	25354.9
970.499	25357.1
971.639	25342.3
972.779	25285
973.918	25229.2
975.056	25197.1
976.195	25178.5
977.334	25295.8
978.473	25311
979.61	25323.5
980.749	25334.6
981.887	25341.8
983.024	25341.9
984.162	25318.7
985.3	25289.5
986.437	25262.2
987.573	25243.7
988.711	25246.9
989.848	25260
990.983	25277.1
992.12	25296
993.255	25313.3
994.392	25329.5
995.528	25323
996.662	25301.7
997.798	25273.2
998.933	25253.5
1000.07	25238.8
1001.2	25246.9
1002.34	25262.1
1003.47	25280
1004.61	25304.2
1005.74	25324
1006.87	25329.1
1008.01	25326.1
1009.14	25311.8
1010.27	25287.9
1011.41	25247.4
1012.54	25230.6
1013.67	25212.6
1014.81	25203.3
1015.94	25223.4
1017.07	25243.6
1018.2	25254.6
1019.33	25263.1
1020.47	25236.2
1021.6	25217.1
1022.73	25196.8
1023.86	25178.4
1024.99	25159.9
1026.12	25121.5
1027.25	25118.6
1028.38	25121.5
1029.51	25121.4
1030.64	25103.5
1031.77	25058
1032.9	25032.1
1034.03	25014.7
1035.16	25004.4
1036.29	24997.7
1037.42	24980.7
1038.55	24962.2
1039.67	24942.5
1040.8	24921.6
1041.93	24897.9
1043.06	24873.4
1044.19	24849.7
1045.31	24828.4
1046.44	24812.8
1047.57	24800.1
1048.69	24770.4
1049.82	24803.3
1050.95	24845.3
1052.08	24874.7
1053.2	24882.3
1054.33	24811.9
1055.45	24758.8
1056.58	24718.3
1057.7	24698.1
1058.83	24692.3
1059.95	24699.7
1061.08	24693.6
1062.2	24664.7
1063.33	24646.2
1064.45	24631.7
1065.58	24621.4
1066.7	24614.8
1067.83	24611.2
1068.95	24610
1070.07	24612.4
1071.2	24617.6
1072.32	24625.5
1073.44	24634.8
1074.56	24640.6
1075.69	24642.1
1076.81	24634.7
1077.93	24631.5
1079.05	24603.9
1080.17	24578.6
1081.3	24565.8
1082.42	24570.5
1083.54	24575.4
1084.66	24579.8
1085.78	24585
1086.9	24591.4
1088.02	24608.1
1089.14	24635.4
1090.26	24662.8
1091.38	24689.4
1092.5	24712.4
1093.62	24710.9
1094.74	24669.2
1095.86	24626.3
1096.98	24616.7
1098.1	24611.8
1099.22	24612.2
1100.34	24620.9
1101.45	24614.7
1102.57	24603.9
1103.69	24591.1
1104.81	24577.5
1105.93	24563.6
1107.04	24550.2
1108.16	24536.1
1109.28	24521.9
1110.4	24507.5
1111.51	24493.7
1112.63	24480.9
1113.75	24470.8
1114.86	24461.9
1115.98	24453.9
1117.09	24447.9
1118.21	24439.6
1119.32	24431.7
1120.44	24412.2
1121.55	24381.4
1122.67	24350.5
1123.78	24319.6
1124.9	24289.6
1126.01	24260.9
1127.13	24237
1128.24	24213.1
1129.35	24193.3
1130.47	24176.3
1131.58	24160.4
1132.7	24146
1133.81	24131.8
1134.92	24111.3
1136.03	24090.7
1137.15	24068.6
1138.26	24046
1139.37	24022
1140.48	23997.1
1141.59	23972.3
1142.71	23948.8
1143.82	23926.6
1144.93	23907.3
1146.04	23888
1147.15	23869.1
1148.26	23850.8
1149.37	23832.9
1150.48	23815.5
1151.59	23798
1152.7	23781.9
1153.81	23772.7
1154.92	23766.6
1156.03	23763
1157.14	23759.6
1158.25	23756.7
1159.36	23754.4
1160.47	23751.9
1161.58	23737.4
1162.68	23700.3
1163.79	23665.9
1164.9	23649.6
1166.01	23635.9
1167.12	23640.1
1168.22	23664.1
1169.33	23681.8
1170.44	23699.2
1171.55	23694.7
1172.65	23684.9
1173.76	23668.3
1174.87	23648.4
1175.97	23660.6
1177.08	23684.5
1178.18	23708.6
1179.29	23732.4
1180.4	23759.8
1181.5	23774.5
1182.61	23764.2
1183.71	23754
1184.82	23744.3
1185.92	23735.2
1187.02	23727
1188.13	23718.9
1189.23	23711.1
1190.34	23701.5
1191.44	23696.1
1192.54	23694.4
1193.65	23693.4
1194.75	23698.4
1195.85	23704.4
1196.96	23711.8
1198.06	23719.9
1199.16	23725.8
1200.26	23730.7
1201.37	23731.7
1202.47	23732.8
1203.57	23737.5
1204.67	23747.1
1205.77	23776.7
1206.87	23811.8
1207.97	23733.6
1209.08	23688.6
1210.18	23656.5
1211.28	23636.4
1212.38	23621
1213.48	23604.9
1214.58	23594.2
1215.68	23588.1
1216.78	23586.8
1217.88	23590
1218.98	23597
1220.07	23607.2
1221.17	23616.8
1222.27	23627.3
1223.37	23622.7
1224.47	23606.4
1225.57	23574
1226.66	23548.1
1227.76	23524.6
1228.86	23496.4
1229.96	23480.4
1231.06	23491.8
1232.15	23512.3
1233.25	23514.2
1234.35	23487.8
1235.44	23443.7
1236.54	23404.3
1237.63	23372.2
1238.73	23333.9
1239.83	23298.6
1240.92	23263.6
1242.02	23231.5
1243.11	23205.4
1244.21	23187.1
1245.3	23205
1246.4	23225.1
1247.49	23245.5
1248.59	23260.4
1249.68	23268.6
1250.78	23270.8
1251.87	23265.8
1252.96	23254.6
1254.06	23236.2
1255.15	23210.9
1256.24	23173.7
1257.34	23140.1
1258.43	23131.6
1259.52	23123.9
1260.62	23120.3
1261.71	23118.1
1262.8	23116.9
1263.89	23112.9
1264.98	23113.4
1266.08	23116.2
1267.17	23121
1268.26	23126
1269.35	23132.2
1270.44	23138
1271.53	23142.3
1272.62	23144.3
1273.71	23142.3
1274.8	23138.7
1275.89	23133.1
1276.98	23129.4
1278.07	23129.4
1279.16	23142.6
1280.25	23174.8
1281.34	23193.7
1282.43	23199.9
1283.52	23193.5
1284.61	23174.7
1285.69	23141.5
1286.78	23132.9
1287.87	23133.5
1288.96	23137.7
1290.05	23146
1291.13	23154.2
1292.22	23162.3
1293.31	23169.6
1294.4	23176.4
1295.48	23182.9
1296.57	23188.1
1297.66	23188.3
1298.74	23180.7
1299.83	23171.3
1300.92	23167.9
1302	23165.4
1303.09	23163.8
1304.17	23165.4
1305.26	23167.6
1306.34	23171
1307.43	23171.8
1308.51	23146
1309.6	23129.4
1310.68	23108.2
1311.76	23094.3
1312.85	23080.4
1313.93	23077
1315.02	23087.4
1316.1	23090.8
1317.18	23085.5
1318.27	23074.4
1319.35	23060.1
1320.43	23037.6
1321.52	23009.7
1322.6	22977.9
1323.68	22941
1324.76	22937.2
1325.85	22950.1
1326.93	22965.4
1328.01	22961.6
1329.09	22951.5
1330.17	22939.4
1331.25	22939.6
1332.33	22936.2
1333.41	22928.2
1334.49	22916.6
1335.58	22905.5
1336.65	22885.7
1337.74	22860
1338.82	22832
1339.89	22804
1340.97	22802.8
1342.05	22821.3
1343.13	22819.7
1344.21	22812.9
1345.29	22804.1
1346.37	22797.2
1347.45	22789.6
1348.53	22778.7
1349.6	22782.1
1350.68	22781.5
1351.76	22779.9
1352.84	22776.6
1353.92	22758.8
1354.99	22738.2
1356.07	22723.1
1357.15	22713.1
1358.22	22705.7
1359.3	22702.6
1360.38	22703.1
1361.45	22706.7
1362.53	22713.9
1363.61	22724.3
1364.68	22737.2
1365.76	22751.5
1366.83	22763.7
1367.91	22777.4
1368.98	22718.8
1370.06	22720.9
1371.13	22712
1372.21	22696.8
1373.28	22681
1374.35	22671
1375.43	22667.6
1376.5	22669.4
1377.58	22678.9
1378.65	22690.7
1379.72	22706.6
1380.8	22715.9
1381.87	22716.3
1382.94	22707.5
1384.01	22691.3
1385.09	22666.9
1386.16	22638.7
1387.23	22616.2
1388.3	22595.2
1389.38	22578.8
1390.45	22577.6
1391.52	22574.5
1392.59	22569.4
1393.66	22559.3
1393.92	22554.6
1395	22544.6
1396.07	22540.8
1397.15	22541.6
1398.22	22548.5
1399.3	22540.9
1400.38	22530.3
1401.45	22522.3
1402.53	22500.3
1403.6	22486.8
1404.68	22478.5
1405.75	22476.7
1406.82	22477.6
1407.9	22487.4
1408.97	22493.1
1410.05	22496.3
1411.12	22496.7
1412.19	22492
1413.27	22484.8
1414.34	22473.9
1415.41	22459.7
1416.49	22434.9
1417.56	22407.4
1418.63	22403.6
1419.7	22417.3
1420.78	22418.1
1421.85	22394.9
1422.92	22366.4
1423.99	22348.5
1425.06	22332.8
1426.14	22319.1
1427.21	22309
1428.28	22301.7
1429.35	22298.6
1430.42	22298.4
1431.49	22300.7
1432.56	22302.5
1433.63	22288.9
1434.7	22277
1435.77	22257.3
1436.84	22237.8
1437.91	22226.8
1438.98	22218.7
1440.05	22212.4
1441.12	22210.3
1442.18	22208.4
1443.25	22204.1
1444.32	22179.8
1445.39	22154.4
1446.46	22148.6
1447.53	22144.9
1448.59	22143.4
1449.66	22136.1
1450.73	22120.1
1451.8	22105.5
1452.86	22088.6
1453.93	22074.1
1455	22073.8
1456.06	22075.4
1457.13	22082.1
1458.2	22092.7
1459.26	22108.4
1460.33	22125.6
1461.39	22135.9
1462.46	22141.7
1463.52	22134
1464.59	22120.7
1465.65	22109.6
1466.72	22099.2
1467.78	22083.7
1468.85	22075.8
1469.91	22073.7
1470.98	22076.5
1472.04	22075.7
1473.1	22070.2
1474.17	22066.3
1475.23	22061.4
1476.3	22055.7
1477.36	22049.5
1478.42	22043.1
1479.48	22036.1
1480.55	22033.1
1481.61	22032
1482.67	22032.9
1483.73	22037.6
1484.8	22044.6
1485.86	22049.6
1486.92	22052.1
1487.98	22051.6
1489.04	22046.6
1490.1	22038.6
1491.17	22027.1
1492.23	22012.1
1493.29	21993.2
1494.35	21970.3
1495.41	21939.3
1496.47	21884.9
1497.53	21884.3
1498.59	21888.1
1499.65	21890.6
1500.71	21885.2
1501.77	21873.3
1502.83	21853.5
1503.88	21828.8
1504.94	21795.5
1506	21752.4
1507.06	21696.9
1508.12	21645
1509.18	21883.7
1510.23	21711.9
1511.29	21667.6
1512.35	21700.4
1513.41	21701.4
1514.47	21698.8
1515.52	21691.4
1516.58	21673.9
1517.64	21650.5
1518.69	21636.8
1519.75	21626.1
1520.81	21618.5
1521.86	21615.9
1522.92	21617.4
1523.97	21624.8
1525.03	21635.4
1526.08	21649.6
1527.14	21658.8
1528.2	21638.1
1529.25	21592.2
1530.31	21566.7
1531.36	21539.4
1532.42	21516.5
1533.47	21497.4
1534.52	21482.8
1535.58	21475.2
1536.63	21472.1
1537.69	21477.3
1538.74	21483.7
1539.79	21488.5
1540.84	21488.8
1541.9	21485.6
1542.95	21480.6
1544	21473
1545.06	21462.9
1546.11	21449.5
1547.16	21434.5
1548.21	21425.4
1549.27	21420.5
1550.32	21422.2
1551.37	21423.5
1552.42	21425.8
1553.47	21427
1554.52	21427
1555.57	21425.9
1556.62	21425
1557.67	21418.6
1558.72	21411
1559.77	21403.4
1560.82	21397.2
1561.87	21394.5
1562.92	21396.5
1563.97	21402.8
1565.02	21409.4
1566.07	21418.6
1567.12	21430.8
1568.17	21411.4
1569.22	21375.4
1570.27	21313.7
1571.32	21343.7
1572.36	21393.2
1573.41	21390
1574.46	21364.3
1575.51	21338.8
1576.56	21316.4
1577.6	21297.9
1578.65	21282.8
1579.7	21274.7
1580.74	21290.2
1581.79	21313.8
1582.84	21328.4
1583.88	21326.4
1584.93	21313.6
1585.98	21292.2
1587.02	21264.5
1588.07	21233.8
1589.11	21218.5
1590.16	21218.6
1591.2	21226.6
1592.25	21229.3
1593.29	21228.2
1594.34	21218.8
1595.38	21201.8
1596.43	21180.6
1597.47	21156.7
1598.52	21135.5
1599.56	21126.1
1600.6	21120.3
1601.65	21113.9
1602.69	21111.6
1603.73	21085
1604.78	21059.7
1605.82	21038.2
1606.86	21024.2
1607.91	21015.6
1608.95	21012.4
1609.99	21004.7
1611.03	20993.5
1612.08	20981.9
1613.12	20968.8
1614.16	20953.6
1615.2	20936
1616.24	20915.8
1617.28	20891.7
1618.32	20858
1619.36	20833.1
1620.41	20807.1
1621.45	20787
1622.49	20775.5
1623.53	20763.1
1624.57	20747.9
1625.61	20734.9
1626.65	20717.8
1627.69	20694
1628.73	20683.3
1629.76	20674.5
1630.8	20669
1631.84	20666
1632.88	20666.7
1633.92	20667.7
1634.96	20644.6
1636	20616.5
1637.03	20586.6
1638.07	20553.8
1639.11	20518.4
1640.15	20482.5
1641.19	20462.1
1642.22	20464.2
1643.26	20478
1644.3	20478.5
1645.33	20487.1
1646.37	20453.5
1647.41	20439.5
1648.44	20431.3
1649.48	20422.3
1650.52	20419.9
1651.55	20427.1
1652.59	20437.9
1653.62	20439.7
1654.66	20436.4
1655.69	20431.5
1656.73	20423
1657.76	20410.6
1658.8	20394.9
1659.83	20375.7
1660.87	20354.4
1661.9	20337.1
1662.93	20323.5
1663.97	20313.3
1665	20318.3
1666.04	20330.1
1667.07	20347.7
1668.1	20361.3
1669.14	20332.2
1670.17	20259.1
1671.2	20214.6
1672.23	20217.8
1673.27	20216.7
1674.3	20218
1675.33	20220.1
1676.36	20223.6
1677.39	20225
1678.43	20229.4
1679.46	20233.4
1680.49	20238.6
1681.52	20242.4
1682.55	20243.6
1683.58	20241.6
1684.61	20233.7
1685.64	20223.8
1686.67	20210.7
1687.7	20193.4
1688.73	20173.4
1689.76	20151.8
1690.79	20134.3
1691.82	20119
1692.85	20114.2
1693.88	20109.6
1694.91	20104.2
1695.94	20097.1
1696.97	20087
1698	20074.9
1699.02	20067.2
1700.05	20063.2
1701.08	20056.8
1702.11	20044.7
1703.14	20031.4
1704.16	20016.4
1705.19	19998.2
1706.22	19978
1707.25	19956
1708.27	19933.3
1709.3	19914.8
1710.33	19899.4
1711.35	19892.9
1712.38	19886.6
1713.41	19883
1714.43	19884.8
1715.46	19878.3
1716.48	19856.9
1717.51	19828.5
1718.53	19799.2
1719.56	19772.8
1720.58	19752.4
1721.61	19736
1722.63	19722.4
1723.66	19711.9
1724.68	19704.7
1725.71	19701.1
1726.73	19700
1727.75	19694.9
1728.78	19685.5
1729.8	19660.8
1730.83	19625.1
1731.85	19600.3
1732.87	19579.6
1733.89	19564.9
1734.92	19562.4
1735.94	19562.3
1736.96	19561.2
1737.98	19560.5
1739.01	19559.6
1740.03	19556.3
1741.05	19550.2
1742.07	19541.5
1743.09	19529.5
1744.12	19500.5
1745.14	19468.6
1746.16	19440.7
1747.18	19414.5
1748.2	19393.6
1749.22	19378.7
1750.24	19373.4
1751.26	19384.1
1752.28	19388.6
1753.3	19385.1
1754.32	19372.6
1755.34	19353.7
1756.36	19330.6
1757.38	19303.3
1758.4	19285.7
1759.42	19276.7
1760.44	19271.8
1761.45	19269.8
1762.47	19268.2
1763.49	19256.7
1764.51	19242.5
1765.53	19224.9
1766.55	19206.9
1767.56	19190
1768.58	19174.3
1769.6	19162.6
1770.61	19152.9
1771.63	19145.2
1772.65	19139.5
1773.67	19136.5
1774.68	19135.5
1775.7	19137.5
1776.72	19140.3
1777.73	19133.2
1778.75	19116.9
1779.76	19092.4
1780.78	19075.1
1781.79	19057.9
1782.81	19042.3
1783.83	19031.7
1784.84	19026
1785.85	19020
1786.87	19012
1787.88	19002
1788.9	18979.1
1789.91	18958.3
1790.93	18949.4
1791.94	18948.7
1792.95	18932.3
1793.97	18913.7
1794.98	18896.6
1796	18879.7
1797.01	18865.5
1798.02	18852.5
1799.03	18841
1800.05	18851.1
1801.06	18864.6
1802.07	18859.2
1803.08	18853.4
1804.1	18830.1
1805.11	18802.1
1806.12	18777.4
1807.13	18755.1
1808.14	18734.9
1809.15	18717.4
1810.17	18701.8
1811.18	18688.9
1812.19	18678.2
1813.2	18669.6
1814.21	18662.7
1815.22	18657.7
1816.23	18651.9
1817.24	18644.4
1818.25	18633.1
1819.26	18614.6
1820.27	18593.6
1821.28	18569.8
1822.29	18532.2
1823.3	18491.2
1824.3	18466.3
1825.31	18451.5
1826.32	18442
1827.33	18430.6
1828.34	18423.6
1829.35	18397.9
1830.35	18370.9
1831.36	18343.8
1832.37	18314.4
1833.38	18293.1
1834.38	18280.3
1835.39	18270.3
1836.4	18261.5
1837.41	18255
1838.41	18249.8
1839.42	18232.5
1840.43	18219.3
1841.43	18206.3
1842.44	18199.9
1843.44	18197.3
1844.45	18202.9
1845.46	18207.6
1846.46	18180.1
1847.47	18134.6
1848.47	18131.3
1849.48	18139.9
1850.48	18150.1
1851.49	18147.8
1852.49	18111.2
1853.49	18084.9
1854.5	18067.2
1855.5	18045.5
1856.51	18026.8
1857.51	18014.5
1858.51	18000.8
1859.52	17980.8
1860.52	17955.5
1861.52	17919.8
1862.53	17946.2
1863.53	17945.6
1864.53	17943.3
1865.54	17933.6
1866.54	17920.9
1867.54	17892.4
1868.54	17854.4
1869.54	17828.8
1870.55	17804.8
1871.55	17792.1
1872.55	17790
1873.55	17797.6
1874.55	17805.4
1875.55	17808.4
1876.55	17802.4
1877.55	17790.4
1878.55	17771
1879.55	17752.6
1880.56	17714.9
1881.55	17696.7
1882.56	17688.9
1883.55	17685.1
1884.55	17679.4
1885.55	17672.8
1886.55	17664.7
1887.55	17652.5
1888.55	17639
1889.55	17625
1890.55	17608.9
1891.55	17591.3
1892.55	17569.2
1893.54	17533.5
1894.54	17505.1
1895.54	17479.8
1896.54	17465.9
1897.54	17454.7
1898.53	17455.9
1899.53	17457.9
1900.53	17459.6
1901.52	17450.3
1902.52	17441.5
1903.52	17432.6
1904.51	17424.1
1905.51	17414.9
1906.51	17407.9
1907.5	17403.1
1908.5	17401.2
1909.49	17401.1
1910.49	17394.7
1911.49	17380
1912.48	17341
1913.48	17298.8
1914.47	17266.7
1915.46	17248.4
1916.46	17239
1917.45	17239.2
1918.45	17244.1
1919.44	17249.9
1920.44	17233.1
1921.43	17205.5
1922.43	17165.4
1923.42	17129
1924.41	17098.5
1925.41	17067.7
1926.4	17062.5
1927.39	17067.8
1928.38	17061.9
1929.38	17053.1
1930.37	17043.8
1931.36	17033.3
1932.35	17020.3
1933.35	17005.3
1934.34	16988.4
1935.33	16969.8
1936.32	16949.2
1937.31	16926.7
1938.3	16901.4
1939.29	16876.9
1940.29	16856.3
1941.28	16841.9
1942.27	16834.8
1943.26	16835.8
1944.25	16841.2
1945.24	16823.8
1946.23	16789.6
1947.22	16765
1948.21	16751.7
1949.2	16740.4
1950.19	16727.5
1951.18	16714.8
1952.17	16701.9
1953.16	16689
1954.14	16675.6
1955.13	16662.3
1956.12	16648.7
1957.11	16635.1
1958.1	16619.7
1959.09	16600.4
1960.07	16579.5
1961.06	16555.8
1962.05	16544.5
1963.04	16535.6
1964.02	16529.6
1965.01	16526.2
1966	16525.6
1966.99	16520.6
1967.97	16505.1
1968.96	16488
1969.95	16472.9
1970.93	16457.3
1971.92	16441.5
1972.9	16424.7
1973.89	16409.8
1974.88	16397.1
1975.86	16386.1
1976.85	16374.6
1977.83	16357.5
1978.82	16338.2
1979.8	16320.6
1980.79	16304.9
1981.77	16291.2
1982.76	16284.4
1983.74	16271.2
1984.72	16254.8
1985.71	16240.1
1986.69	16223.7
1987.67	16221.3
1988.66	16219.9
1989.64	16214.8
1990.62	16205.6
1991.61	16196.9
1992.59	16181.2
1993.57	16162.9
1994.56	16140.9
1995.54	16116.4
1996.52	16090.5
1997.5	16064.3
1998.49	16048.9
1999.47	16036.9
2000.45	16028.2
2001.43	16022.9
2002.41	16021.2
2003.39	16022.8
2004.38	16027.5
2005.36	16021.3
2006.34	15993.6
2007.32	15962.9
2008.3	15937
2009.28	15914.5
2010.26	15894.7
2011.24	15872.8
2012.22	15864.5
2013.2	15870.1
2014.18	15871.6
2015.16	15864.9
2016.14	15857.2
2017.12	15847.7
2018.1	15834.6
2019.07	15819.3
2020.05	15799.8
2021.03	15778.2
2022.01	15754.5
2022.99	15730.7
2023.97	15717.8
2024.95	15706.8
2025.92	15706.3
2026.9	15707.2
2027.88	15705.8
2028.86	15702.5
2029.83	15696.9
2030.81	15688.7
2031.79	15655.7
2032.76	15603.2
2033.74	15554.8
2034.72	15519.9
2035.69	15501
2036.67	15548.6
2037.65	15516.6
2038.62	15492.3
2039.6	15478.9
2040.57	15474
2041.55	15470.7
2042.52	15467
2043.5	15461.5
2044.47	15455.3
2045.45	15446
2046.42	15432.1
2047.4	15414.2
2048.37	15393.2
2049.35	15367
2050.32	15329
2051.29	15300.5
2052.27	15271.3
2053.24	15252.9
2054.21	15245
2055.19	15241.5
2056.16	15234
2057.13	15227.8
2058.11	15219.8
2059.08	15210.3
2060.05	15197.9
2061.02	15185.5
2062	15166.8
2062.97	15144.6
2063.94	15121.9
2064.91	15099.1
2065.89	15077.8
2066.86	15062.2
2067.83	15054.2
2068.8	15048.9
2069.77	15046.9
2070.74	15051
2071.71	15049.3
2072.68	15038.9
2073.65	15021.3
2074.62	14996.9
2075.59	14960.1
2076.56	14933
2077.53	14895.2
2078.5	14859.9
2079.47	14828.5
2080.44	14814.2
2081.41	14802.4
2082.38	14801.3
2083.35	14801
2084.32	14793.9
2085.29	14781.7
2086.26	14779.1
2087.23	14756.7
2088.19	14725.5
2089.16	14696.3
2090.13	14674.3
2091.1	14652.8
2092.07	14634.3
2093.03	14619.4
2094	14607
2094.97	14598.9
2095.94	14593.8
2096.9	14591.8
2097.87	14590.9
2098.84	14579.3
2099.8	14567.7
2100.77	14554.4
2101.74	14544.1
2102.7	14538.3
2103.67	14531.5
2104.63	14521.9
2105.6	14509.7
2106.56	14494.3
2107.53	14476.6
2108.49	14456.4
2109.46	14434.2
2110.42	14410.9
2111.39	14388.6
2112.35	14370.2
2113.32	14353.6
2114.28	14340.8
2115.25	14330.2
2116.21	14325.7
2117.17	14323
2118.14	14321.3
2119.1	14319.2
2120.07	14302.7
2121.03	14285.5
2121.99	14264
2122.96	14239.5
2123.92	14229.8
2124.88	14229
2125.84	14227
2126.81	14219.9
2127.77	14209.7
2128.73	14196.3
2129.69	14176.2
2130.65	14153.8
2131.62	14131
2132.58	14109.5
2133.54	14090.8
2134.5	14073.4
2135.46	14056.5
2136.42	14041.5
2137.38	14029.5
2138.34	14021.2
2139.3	14030.9
2140.26	14009.2
2141.22	13990.2
2142.18	13968.9
2143.14	13953.7
2144.1	13939.4
2145.06	13928.8
2146.02	13919.7
2146.98	13914.7
2147.94	13911.4
2148.9	13909.6
2149.86	13905.1
2150.82	13881.2
2151.78	13851.2
2152.74	13827.7
2153.69	13799.2
2154.65	13771.6
2155.61	13762.1
2156.57	13758.1
2157.53	13758.6
2158.48	13744.6
2159.44	13726.7
2160.4	13703.7
2161.36	13689.5
2162.31	13671.5
2163.27	13656.8
2164.23	13647.8
2165.18	13638.1
2166.14	13624.5
2167.1	13608.9
2168.05	13585.2
2169.01	13553.4
2169.96	13528.5
2170.92	13510.4
2171.88	13497.4
2172.83	13477
2173.79	13448.8
2174.74	13412.3
2175.7	13380.2
2176.65	13346.9
2177.6	13317.7
2178.56	13303.6
2179.51	13292.1
2180.47	13297.1
2181.42	13294.3
2182.38	13297.2
2183.33	13283.6
2184.28	13264.6
2185.24	13245.5
2186.19	13228.8
2187.14	13212.3
2188.1	13199.8
2189.05	13187.3
2190	13176.4
2190.96	13166.1
2191.91	13157.3
2192.86	13141.2
2193.81	13115.9
2194.76	13094.2
2195.72	13085.8
2196.67	13076.1
2197.62	13066.9
2198.57	13064.2
2199.52	13055.1
2200.47	13046.4
2201.43	13016.4
2202.38	12966.7
2203.33	12938.6
2204.28	12921.5
2205.23	12917.4
2206.18	12906.6
2207.13	12896.6
2208.08	12885.5
2209.03	12874.9
2209.98	12864.1
2210.93	12852.8
2211.88	12841.2
2212.83	12829.3
2213.78	12816.9
2214.73	12804
2215.67	12788.6
2216.62	12772.6
2217.57	12756
2218.52	12757.7
2219.47	12755.9
2220.42	12737.8
2221.37	12718.2
2222.31	12693.8
2223.26	12679.4
2224.21	12676
2225.16	12675
2226.1	12673.8
2227.05	12667.1
2228	12666.3
2228.94	12664.3
2229.89	12658.3
2230.84	12648.9
2231.78	12636.4
2232.73	12622.6
2233.68	12606.5
2234.62	12592.3
2235.57	12573.8
2236.51	12555.3
2237.46	12560.9
2238.41	12562.9
2239.35	12563
2240.3	12561.5
2241.24	12552.5
2242.19	12534.4
2243.13	12517.6
2244.07	12504.7
2245.02	12494
2245.96	12488.3
2246.91	12485.8
2247.85	12488.9
2248.8	12499.6
2249.74	12504.7
2250.68	12503.9
2251.63	12495.1
2252.57	12482.7
2253.51	12470.8
2254.46	12456.1
2255.4	12448.1
2256.34	12445.6
2257.28	12446.5
2258.23	12459.3
2259.17	12466.1
2260.11	12462.5
2261.05	12449.7
2262	12425.6
2262.94	12403
2263.88	12390.4
2264.82	12393.5
2265.76	12382.7
2266.7	12370.7
2267.64	12361
2268.58	12352.4
2269.53	12344
2270.47	12337.9
2271.41	12333.8
2272.35	12333.8
2273.29	12335.9
2274.23	12335.9
2275.17	12329.8
2276.11	12322.5
2277.05	12316.4
2277.99	12313.6
2278.93	12312.1
2279.86	12310.6
2280.8	12310.3
2281.74	12308.3
2282.68	12303.8
2283.62	12292.3
2284.56	12279.8
2285.5	12267.9
2286.44	12259.6
2287.37	12255.9
2288.31	12257.5
2289.25	12261
2290.19	12258.6
2291.12	12253.4
2292.06	12251
2293	12249.1
2293.94	12246.1
2294.87	12231.4
2295.81	12216.6
2296.75	12207.4
2297.68	12198
2298.62	12194.4
2299.55	12188.2
2300.49	12179
2301.43	12165.8
2302.36	12153.6
2303.3	12140.8
2304.23	12126.7
2305.17	12112.2
2306.1	12100.5
2307.04	12090.6
2307.98	12084
2308.91	12080.3
2309.84	12079.4
2310.78	12081.1
2311.71	12084.8
2312.65	12084.3
2313.58	12061.3
2314.52	12033.4
2315.45	12015.9
2316.38	12002.2
2317.32	11989.8
2317.72	11985.5
2318.66	11995
2319.6	11981.5
2320.54	11961.5
2321.48	11936
2322.41	11906.9
2323.35	11877.6
2324.29	11880.4
2325.23	11898.8
2326.16	11873.7
2327.1	11863.4
2328.04	11856.1
2328.97	11848.3
2329.91	11842.7
2330.85	11843.5
2331.78	11843
2332.72	11841.2
2333.66	11837.9
2334.59	11829.9
2335.53	11817.2
2336.46	11803.1
2337.4	11786.3
2338.33	11766.9
2339.27	11749
2340.2	11744.3
2341.14	11740
2342.07	11731.7
2343.01	11723.1
2343.94	11714.5
2344.88	11704.4
2345.81	11693.3
2346.75	11680.6
2347.68	11664.9
2348.61	11647.3
2349.55	11631.1
2350.48	11624.5
2351.41	11619.6
2352.35	11621.2
2353.28	11616.7
2354.21	11611.7
2355.15	11603.9
2356.08	11592.7
2357.01	11577.2
2357.94	11563.4
2358.88	11549.8
2359.81	11537.1
2360.74	11525.1
2361.67	11513.7
2362.6	11503.6
2363.54	11495.6
2364.47	11492.2
2365.4	11495.3
2366.33	11495.4
2367.26	11494.4
2368.19	11492.4
2369.12	11490.5
2370.05	11488
2370.98	11486.1
2371.91	11484.2
2372.84	11484.2
2373.77	11479
2374.7	11463.5
2375.63	11443.8
2376.56	11424.7
2377.49	11410.8
2378.42	11397.1
2379.35	11392.6
2380.28	11393.2
2381.21	11399.9
2382.14	11413.5
2383.07	11403.9
2384	11387.9
2384.92	11363.4
2385.85	11333.9
2386.78	11312.3
2387.71	11298.3
2388.64	11290.6
2389.56	11283.9
2390.49	11278.9
2391.42	11276.9
2392.35	11276.5
2393.27	11280.6
2394.2	11287.2
2395.13	11292.6
2396.05	11294.3
2396.98	11289.5
2397.91	11281.3
2398.83	11271.1
2399.76	11257.3
2400.69	11242.5
2401.61	11223.5
2402.54	11204.3
2403.46	11187.2
2404.39	11178.8
2405.31	11190.3
2406.24	11192.1
2407.17	11189.3
2408.09	11181.1
2409.01	11171.4
2409.94	11162.1
2410.86	11154.2
2411.79	11149
2412.71	11147
2413.64	11148
2414.56	11149.1
2415.49	11146.5
2416.41	11140
2417.33	11117.1
2418.26	11094.7
2419.18	11073.7
2420.1	11056
2421.03	11042.9
2421.95	11033.2
2422.87	11032
2423.79	11023.1
2424.72	11008.5
2425.64	10990
2426.56	10969.7
2427.48	10950.9
2428.41	10941.7
2429.33	10960.5
2430.25	10984.3
2431.17	10958.3
2432.09	10935.1
2433.01	10913.8
2433.93	10895.4
2434.86	10879.9
2435.78	10869.4
2436.7	10858.1
2437.62	10846.7
2438.54	10835
2439.46	10823.3
2440.38	10810.6
2441.3	10796.6
2442.22	10781.9
2443.14	10766.4
2444.06	10750.9
2444.98	10735.6
2445.9	10722.8
2446.82	10711.3
2447.73	10702.3
2448.65	10695.5
2449.57	10693.1
2450.49	10682.3
2451.41	10670.3
2452.33	10658.2
2453.25	10640.6
2454.17	10622.8
2455.08	10624.9
2456	10619
2456.92	10621.3
2457.84	10621
2458.75	10616.6
2459.67	10603.2
2460.59	10585.5
2461.51	10565.1
2462.42	10541.5
2463.34	10525
2464.26	10512.1
2465.17	10502.3
2466.09	10494.8
2467	10489.8
2467.92	10487.2
2468.84	10487.2
2469.75	10489.4
2470.67	10490.1
2471.58	10486.8
2472.5	10445.4
2473.42	10423.3
2474.33	10399
2475.25	10386.2
2476.16	10369.1
2477.08	10364.1
2477.99	10375.6
2478.9	10399.7
2479.82	10398.9
2480.73	10388
2481.65	10373.5
2482.56	10362.1
2483.47	10353
2484.39	10344.6
2485.3	10336.3
2486.22	10328.3
2487.13	10321.1
2488.04	10314.6
2488.96	10308.5
2489.87	10302.9
2490.78	10297.4
2491.69	10291.5
2492.61	10279.5
2493.52	10266.8
2494.43	10252.5
2495.34	10234.7
2496.25	10219.2
2497.17	10217.6
2498.08	10221.5
2498.99	10228.7
2499.9	10227.7
2500.81	10225.6
2501.72	10220
2502.63	10213.2
2503.55	10204.9
2504.46	10195.1
2505.37	10182.9
2506.28	10170.4
2507.19	10178.1
2508.1	10175.8
2509.01	10174.4
2509.92	10172.8
2510.83	10150.2
2511.74	10147.5
2512.65	10148.9
2513.56	10149.2
2514.47	10148.6
2515.37	10147.2
2516.28	10146.9
2517.19	10138.1
2518.1	10128.8
2519.01	10115
2519.92	10098.7
2520.83	10081.5
2521.73	10068.1
2522.64	10054.8
2523.55	10042.1
2524.46	10030.7
2525.37	10020.5
2526.27	10011.7
2527.18	10004.3
2528.09	9998.68
2529	9994.85
2529.9	9992.91
2530.81	9993.17
2531.72	9992.25
2532.62	9986.88
2533.53	9978.67
2534.44	9969.62
2535.34	9961.64
2536.25	9951.55
2537.15	9941.28
2538.06	9930.18
2538.96	9919.14
2539.87	9908.43
2540.78	9898.79
2541.68	9890.83
2542.59	9883.19
2543.49	9876.78
2544.4	9871.02
2545.3	9862.24
2546.21	9850.86
2547.11	9836.55
2548.01	9825.39
2548.92	9816.36
2549.82	9808.62
2550.73	9803.64
2551.63	9799.35
2552.53	9795.75
2553.44	9793.1
2554.34	9790.26
2555.24	9785.57
2556.15	9780.75
2557.05	9772.46
2557.95	9756.83
2558.86	9741.96
2559.76	9726.03
2560.66	9709.22
2561.56	9692.02
2562.46	9675.34
2563.37	9657.82
2564.27	9640
2565.17	9621.77
2566.07	9603.66
2566.97	9589.55
2567.88	9593.19
2568.78	9596.72
2569.68	9599.43
2570.58	9601.78
2571.48	9604.13
2572.38	9597.37
2573.28	9581.61
2574.18	9561.77
2575.08	9540.19
2575.98	9517.02
2576.88	9504.35
2577.78	9496.06
2578.68	9490.9
2579.58	9492.86
2580.48	9498.17
2581.38	9499.24
2582.28	9500.28
2583.18	9499.06
2584.08	9486.3
2584.98	9475.4
2585.88	9454.88
2586.77	9438.41
2587.67	9421.11
2588.57	9402.69
2589.47	9391.8
2590.37	9379.58
2591.27	9372.75
2592.16	9365.31
2593.06	9359.61
2593.96	9354.38
2594.86	9350.25
2595.75	9346.59
2596.65	9344.74
2597.55	9337.76
2598.45	9323.2
2599.34	9304.27
2600.24	9280.54
2601.13	9263.67
2602.03	9251.26
2602.93	9245.12
2603.82	9239.1
2604.72	9234.7
2605.62	9230.58
2606.51	9226.44
2607.41	9223.76
2608.3	9218.48
2609.2	9210.51
2610.09	9198.96
2610.99	9190.38
2611.88	9185.78
2612.78	9182.85
2613.67	9209.72
2614.57	9194.91
2615.46	9175.84
2616.36	9154.79
2617.25	9129.98
2618.14	9104.5
2619.04	9092.31
2619.93	9089.03
2620.83	9095.31
2621.72	9106.57
2622.61	9111.91
2623.5	9106.27
2624.4	9094.27
2625.29	9080.57
2626.18	9061.43
2627.08	9039.16
2627.97	9013.28
2628.86	8989.29
2629.75	8979.9
2630.65	8972.92
2631.54	8970.22
2632.43	8972.46
2633.32	8987.2
2634.21	8987.35
2635.11	8968.25
2636	8954.85
2636.89	8943.52
2637.78	8935.02
2638.67	8927.45
2639.56	8920.09
2640.45	8909.9
2641.34	8884.56
2642.23	8850.69
2643.12	8799.97
2644.01	8766.27
2644.9	8773.72
2645.79	8755.46
2646.68	8738.3
2647.57	8727.03
2648.46	8721.24
2649.35	8718.83
2650.24	8717.54
2651.13	8717.6
2652.02	8716.35
2652.91	8713.18
2653.8	8708.78
2654.69	8699.69
2655.58	8691.16
2656.46	8684.6
2657.35	8695.02
2658.24	8708.57
2659.13	8708.57
2660.02	8689.88
2660.9	8641.62
2661.79	8630.14
2662.68	8622.66
2663.57	8619.22
2664.45	8617.89
2665.34	8621.71
2666.23	8626.48
2667.11	8623.19
2668	8610.17
2668.89	8586.49
2669.77	8567.38
2670.66	8552.93
2671.55	8540.59
2672.43	8535.06
2673.32	8542.51
2674.21	8546.39
2675.09	8547.86
2675.98	8550.66
2676.86	8539.94
2677.75	8518.01
2678.63	8505.41
2679.52	8487.96
2680.4	8484.8
2681.29	8480.27
2682.17	8480.12
2683.06	8463.31
2683.94	8443.06
2684.82	8415.5
2685.71	8383.49
2686.59	8361.68
2687.48	8348.79
2688.36	8345.32
2689.24	8350.72
2690.13	8351.96
2691.01	8352.58
2691.89	8347.88
2692.78	8328.37
2693.66	8319.38
2694.54	8310.73
2695.43	8302.59
2696.31	8294.66
2697.19	8286.79
2698.07	8278.61
2698.96	8268.66
2699.84	8254.8
2700.72	8240.86
2701.6	8228.5
2702.48	8217.83
2703.36	8207.46
2704.25	8197.9
2705.13	8189.27
2706.01	8181.29
2706.89	8173.73
2707.77	8166.42
2708.65	8156.85
2709.53	8146.38
2710.41	8133.06
2711.29	8120
2712.17	8105.75
2713.05	8090.76
2713.93	8097.03
2714.81	8106.25
2715.69	8118.94
2716.57	8123.11
2717.45	8122.08
2718.33	8101.42
2719.21	8068.89
2720.09	8048.33
2720.97	8017.96
2721.85	8062.24
2722.73	8063.71
2723.61	8034.45
2724.48	8007.42
2725.36	8001.12
2726.24	7996.72
2727.12	7993.53
2728	7991.99
2728.88	8001.95
2729.75	8003.93
2730.63	7998.4
2731.51	7990.15
2732.39	7977.88
2733.26	7969.65
2734.14	7964.56
2735.02	7957.58
2735.89	7953.09
2736.77	7947.96
2737.65	7941.96
2738.52	7932.95
2739.4	7918.94
2740.28	7905.56
2741.15	7890.66
2742.03	7874.86
2742.9	7861.67
2743.78	7848.94
2744.65	7837.44
2745.53	7827.3
2746.41	7819.1
2747.28	7812.6
2748.16	7814.68
2749.03	7821.03
2749.91	7832.63
2750.78	7837.48
2751.66	7843.94
2752.53	7841.66
2753.4	7833.83
2754.28	7827.02
2755.15	7811.49
2756.02	7806.54
2756.9	7809.37
2757.77	7814.64
2758.65	7816.2
2759.52	7813.55
2760.39	7797.27
2761.27	7784.91
2762.14	7772.38
2763.01	7758.6
2763.88	7743.02
2764.76	7726.71
2765.63	7711.36
2766.5	7696.67
2767.37	7682.64
2768.25	7672
2769.12	7662.85
2769.99	7661.92
2770.86	7660.95
2771.73	7661.82
2772.61	7656.69
2773.48	7644.23
2774.35	7633.45
2775.22	7621.39
2776.09	7605.82
2776.96	7588.3
2777.83	7570.17
2778.7	7554.59
2779.57	7541.48
2780.44	7531.49
2781.31	7524.01
2782.18	7519.25
2783.05	7516.65
2783.92	7516.89
2784.79	7519.46
2785.66	7524.14
2786.53	7529.99
2787.4	7534.03
2788.27	7535.84
2789.14	7532.48
2790.01	7518.09
2790.88	7496.93
2791.75	7482.24
2792.62	7476.05
2793.48	7470.85
2794.35	7465.5
2795.22	7457.83
2796.09	7446.95
2796.96	7438.22
2797.82	7426.89
2798.69	7417.67
2799.56	7410.51
2800.43	7405.47
2801.29	7402.07
2802.16	7400.36
2803.03	7399.63
2803.9	7402.28
2804.76	7384.98
2805.63	7358.4
2806.5	7330.14
2807.36	7321.95
2808.23	7333.23
2809.09	7363.44
2809.96	7371.98
2810.83	7341.01
2811.69	7276.47
2812.56	7285.31
2813.42	7290.98
2814.29	7298.72
2815.15	7301.63
2816.02	7301
2816.88	7297.2
2817.75	7291.75
2818.61	7282.83
2819.48	7271.64
2820.34	7258.48
2821.21	7244.62
2822.07	7242.13
2822.94	7239.99
2823.8	7232.43
2824.66	7225.72
2825.53	7219.31
2826.39	7213.15
2827.26	7207.13
2828.12	7201.42
2828.98	7196.43
2829.85	7196.92
2830.71	7194.29
2831.57	7180.86
2832.43	7161.84
2833.3	7148.86
2834.16	7141.68
2835.02	7137.97
2835.88	7135.85
2836.75	7135.08
2837.61	7135.03
2838.47	7137.71
2839.33	7129.03
2840.19	7119.16
2841.06	7106.45
2841.92	7094.13
2842.78	7082.64
2843.64	7076.07
2844.5	7079.88
2845.36	7082.74
2846.22	7085.33
2847.08	7082.96
2847.94	7075.69
2848.81	7068.44
2849.67	7058.97
2850.53	7048.12
2851.39	7036.97
2852.25	7027.1
2853.11	7018.14
2853.97	7012.11
2854.82	7006.8
2855.68	7005.05
2856.54	7002.68
2857.4	7001.33
2858.26	6994.33
2859.12	6989.16
2859.98	6985.92
2860.84	6982.29
2861.7	6981.43
2862.56	6980.34
2863.41	6977.8
2864.27	6974.86
2865.13	6971.51
2865.99	6967.87
2866.85	6963.83
2867.7	6959.12
2868.56	6954.02
2869.42	6948.28
2870.28	6941.63
2871.13	6933.04
2871.99	6922.73
2872.85	6910.79
2873.7	6894.87
2874.56	6877.13
2875.42	6859.1
2876.27	6843.71
2877.13	6846.61
2877.99	6844.5
2878.84	6851.72
2879.7	6854.12
2880.56	6857.84
2881.41	6850.31
2882.27	6832.1
2883.12	6818.5
2883.98	6803.01
2884.83	6795
2885.69	6787.11
2886.54	6779.38
2887.4	6769.92
2888.25	6748.87
2889.11	6737.96
2889.96	6731.82
2890.82	6725.8
2891.67	6726.95
2892.52	6730.94
2893.38	6731.15
2894.23	6725.22
2895.09	6714.21
2895.94	6699.77
2896.79	6687.9
2897.65	6677.81
2898.5	6669.22
2899.35	6661.87
2900.21	6655.43
2901.06	6650.18
2901.91	6645.8
2902.76	6643.15
2903.62	6634.08
2904.47	6628.46
2905.32	6601.29
2906.17	6591.56
2907.03	6588.12
2907.88	6595.73
2908.73	6607.64
2909.58	6605.37
2910.43	6600.77
2911.28	6592.25
2912.14	6580.31
2912.99	6567.88
2913.84	6550.69
2914.69	6529.72
2915.54	6512.1
2916.39	6498.18
2917.24	6487.44
2918.09	6479.63
2918.94	6474.68
2919.79	6475.77
2920.64	6481.22
2921.49	6494.69
2922.34	6495.7
2923.19	6488.81
2924.04	6474.22
2924.89	6465.71
2925.74	6458.11
2926.59	6449.37
2927.44	6439.69
2928.29	6429.47
2929.14	6419.32
2929.98	6409.12
2930.83	6400.92
2931.68	6394.2
2932.53	6387.75
2933.38	6381.94
2934.23	6376.68
2935.07	6371.84
2935.92	6365.69
2936.77	6353.91
2937.62	6342.58
2938.47	6340
2939.31	6341.07
2940.16	6343.52
2941.01	6341.46
2941.85	6330.94
2942.7	6317.66
2943.55	6301.62
2944.39	6283.36
2945.24	6263.95
2946.09	6252.78
2946.93	6254.45
2947.78	6255.44
2948.63	6254.72
2949.47	6252.59
2950.32	6249.87
2951.16	6246.65
2952.01	6243.36
2952.85	6240.3
2953.7	6237.06
2954.55	6233.85
2955.39	6230.23
2956.24	6225.77
2957.08	6219.83
2957.92	6208.4
2958.77	6199.02
2959.61	6189.16
2960.46	6184.74
2961.3	6193.14
2962.15	6211.78
2962.99	6170.88
2963.83	6165.5
2964.68	6165.46
2965.52	6170.16
2966.37	6171.07
2967.21	6166.74
2968.05	6157.38
2968.9	6138.22
2969.74	6125.13
2970.58	6110.87
2971.42	6102.9
2972.27	6100.7
2973.11	6098.4
2973.95	6088.82
2974.79	6083.31
2975.64	6077.92
2976.48	6073.1
2977.32	6068.64
2978.16	6064.32
2979	6059.54
2979.85	6054.13
2980.69	6047.52
2981.53	6039.28
2982.37	6029.05
2983.21	6020.56
2984.05	6024.58
2984.89	6034.5
2985.73	6048.01
2986.57	6041.63
2987.41	6013.03
2988.25	5999.68
2989.1	5987.45
2989.94	5978.4
2990.77	5970.61
2991.62	5971.74
2992.45	5974.2
2993.29	5976.43
2994.13	5978.16
2994.97	5952.7
2995.81	5939.98
2996.65	5942.19
2997.49	5945.77
2998.33	5948.89
2999.17	5912.9
