200.833	20870.9
202.102	20953.7
203.371	20992.1
204.639	21001.4
205.907	21030.6
207.175	21037.4
208.442	21030.2
209.71	21020.2
210.977	21041.3
212.244	21058.8
213.511	21070.6
214.777	21076.7
216.042	21086.5
217.309	21096.7
218.575	21109.2
219.84	21124.8
221.106	21145.9
222.371	21170.9
223.635	21218.9
224.9	21278.4
226.165	21337.2
227.429	21395.2
228.694	21451.4
229.956	21506.3
231.22	21559.3
232.484	21610.8
233.747	21664.8
235.011	21709.1
236.272	21737
237.535	21761.9
238.798	21775.3
240.06	21793.5
241.321	21813.6
242.583	21835.1
243.845	21859.5
245.105	21890.9
246.367	21924.8
247.628	21958.5
248.888	21991.3
250.149	22021.1
251.409	22040.5
252.67	22055.5
253.928	22065.6
255.189	22069.4
256.447	22068.2
257.707	22062.4
258.966	22056.1
260.224	22071.2
261.483	22111.5
262.742	22159.1
263.999	22198.9
265.257	22230
266.514	22250.6
267.772	22246.4
269.028	22258.2
270.286	22274.8
271.543	22289.8
272.799	22315.6
274.056	22351
275.311	22387.1
276.568	22416.2
277.823	22455
279.079	22492
280.333	22522.6
281.589	22545.8
282.843	22561.8
284.099	22572.1
285.352	22588.8
286.607	22610.8
287.86	22636.6
289.114	22664.6
290.368	22682.9
291.621	22701.2
292.875	22720
294.127	22738.7
295.38	22757.8
296.632	22775.7
297.884	22797.2
299.137	22819.5
300.388	22844.4
301.641	22860.1
302.891	22866.4
304.142	22861.6
305.394	22849
306.644	22847.5
307.894	22850.4
309.146	22857.8
310.395	22886.7
311.645	22910.9
312.895	22932.1
314.144	22949.2
315.393	22966.5
316.642	22985.9
317.892	23006.8
319.14	23030.3
320.388	23055.5
321.637	23081
322.885	23109
324.132	23100.9
325.38	23085.8
326.628	23070.1
327.875	23075.4
329.122	23112.5
330.368	23163.4
331.614	23223.2
332.862	23309.8
334.108	23297.9
335.353	23309.8
336.599	23317.7
337.844	23321.9
339.089	23325.5
340.335	23330.4
341.58	23337.4
342.824	23346.3
344.068	23357.1
345.312	23370.2
346.556	23386.4
347.8	23409.6
349.043	23437.9
350.286	23471.6
351.53	23495.9
352.774	23510.4
354.016	23513.5
355.259	23512.1
356.501	23509.5
357.743	23502.4
358.985	23519.4
360.227	23535.2
361.468	23548
362.709	23557.9
363.95	23564.5
365.191	23568.3
366.432	23568.9
367.672	23567.4
368.912	23560.2
370.152	23551
371.392	23540.2
372.632	23535.7
373.871	23542
375.11	23551.1
376.348	23565
377.587	23584.2
378.825	23607.9
380.064	23635.8
381.302	23663.8
382.54	23664.1
383.778	23667.7
385.016	23663.5
386.253	23685.5
387.489	23759.5
388.726	23883.7
389.963	23756.6
391.199	23757.5
392.436	23769.7
393.672	23798.8
394.907	23824.9
396.142	23852.5
397.378	23882.2
398.614	23911.9
399.849	23942.8
401.082	23963.6
402.317	23971.8
403.552	23967.2
404.786	23949.5
406.019	23939.5
407.253	23935.4
408.487	23942.8
409.721	23952.1
410.953	23966.6
412.186	23984.9
413.419	24010.3
414.651	24037.6
415.883	24061.8
417.116	24079.6
418.347	24090.4
419.579	24091.3
420.811	24076.6
422.041	24054.8
423.272	24045.1
424.504	24044.5
425.733	24060.7
426.964	24076.1
428.194	24093.6
429.424	24118.6
430.654	24115.9
431.883	24110.5
433.113	24097.8
434.341	24097
435.571	24102.9
436.799	24108.4
438.028	24117.2
439.257	24129.7
440.484	24145.6
441.713	24164.5
442.94	24186.2
444.168	24208.3
445.394	24226.4
446.622	24219.6
447.848	24209.8
449.076	24204.7
450.301	24206.3
451.528	24222.5
452.754	24245.6
453.979	24271.5
455.205	24288.7
456.43	24298.8
457.656	24296.2
458.88	24297.9
460.106	24306.3
461.33	24316.4
462.554	24329.4
463.779	24343.1
465.002	24352
466.225	24351.7
467.45	24340.1
468.672	24354.6
469.895	24375.2
471.119	24376.4
472.341	24371
473.563	24344.8
474.786	24349.9
476.008	24351.8
477.229	24349.5
478.452	24344
479.673	24335.1
480.894	24323.2
482.115	24309
483.337	24293.2
484.557	24278.3
485.777	24261.3
486.997	24251.8
488.218	24241.8
489.438	24247.9
490.657	24255.6
491.876	24265.7
493.096	24273.9
494.315	24287.2
495.533	24299.7
496.752	24305.9
497.97	24295.3
499.188	24277.7
500.407	24267
501.625	24262.4
502.842	24268.2
504.059	24282.9
505.276	24286.2
506.493	24287.6
507.71	24286.4
508.926	24285.6
510.142	24287.9
511.358	24291.7
512.575	24298.5
513.791	24306.8
515.006	24319.8
516.222	24333.5
517.437	24347.5
518.651	24361.7
519.866	24371.6
521.081	24381.3
522.295	24399.8
523.509	24419.9
524.723	24442.7
525.937	24467.5
527.15	24503.8
528.363	24525.7
529.576	24516.2
530.789	24498
532.002	24478.2
533.215	24469.8
534.426	24472.2
535.638	24512.4
536.85	24523.4
538.061	24533.8
539.273	24535.5
540.484	24527.1
541.695	24510.2
542.906	24492.1
544.117	24483.5
545.327	24477.3
546.537	24478.6
547.747	24486.4
548.957	24498.9
550.167	24515.9
551.377	24537
552.585	24561.2
553.794	24584.1
555.003	24585
556.212	24604.4
557.421	24575.5
558.628	24541.7
559.836	24514.7
561.044	24490.1
562.252	24483.5
563.458	24497.9
564.666	24515.8
565.873	24530.1
567.08	24537.1
568.286	24543.7
569.493	24547.1
570.699	24547.9
571.904	24545.4
573.111	24539.7
574.317	24530.9
575.521	24520
576.727	24505.9
577.932	24489
579.136	24467.8
580.341	24470.5
581.544	24512.2
582.749	24549.6
583.954	24572.1
585.156	24587.1
586.361	24602.1
587.563	24612.7
588.767	24619.2
589.97	24622.3
591.172	24621.9
592.375	24618.4
593.577	24611.9
594.78	24603
595.981	24597.2
597.183	24603.7
598.384	24600.9
599.586	24595.8
600.786	24589
601.988	24580.5
603.188	24570.3
604.389	24561.2
605.589	24555
606.79	24558.5
607.989	24567.2
609.188	24563.6
610.389	24552.6
611.587	24543.6
612.787	24524.6
613.986	24497.3
615.184	24476.4
616.383	24464.5
617.581	24459.5
618.78	24443.9
619.977	24416.4
621.174	24390.1
622.373	24360.7
623.57	24336.8
624.766	24316.1
625.964	24296.2
627.16	24277.9
628.356	24259.7
629.554	24243.2
630.749	24226.6
631.945	24209.3
633.14	24190.3
634.337	24176.8
635.532	24166.3
636.726	24167.3
637.921	24190.2
639.117	24201.4
640.311	24215.1
641.505	24227.5
642.699	24241.3
643.892	24248.1
645.087	24249.3
646.28	24237.2
647.473	24229.2
648.666	24228.7
649.859	24224.6
651.051	24222.4
652.245	24222.1
653.437	24223.4
654.629	24226.3
655.821	24231.1
657.012	24237.3
658.204	24245
659.395	24254.4
660.586	24265.3
661.777	24277.4
662.967	24290.8
664.158	24302.9
665.349	24313.9
666.539	24320.8
667.729	24321.7
668.919	24315.6
670.109	24308.1
671.298	24301.2
672.487	24295
673.676	24289.3
674.865	24287.8
676.053	24285.1
677.242	24287.7
678.43	24295.5
679.616	24301.3
680.804	24297.3
681.992	24273.7
683.179	24264.9
684.366	24265.1
685.554	24277.1
686.74	24307
687.927	24264.9
689.114	24228.8
690.3	24259.6
691.486	24269.3
692.671	24276
693.856	24277.2
695.042	24273.5
696.227	24265.2
697.413	24249.8
698.598	24226.3
699.781	24200
700.966	24170.1
702.15	24141.1
703.334	24106.9
704.518	24086
705.701	24076.9
706.885	24076
708.068	24082.1
709.252	24092
710.433	24092.6
711.616	24085.5
712.799	24072.3
713.98	24050.1
715.163	24025.4
716.345	24008.1
717.527	24011.6
718.707	24012.5
719.889	24023.7
721.071	24033
722.25	24037.3
723.432	24036.5
724.611	24030.6
725.792	24019.1
726.972	24028.3
728.151	24032.1
729.332	24042.4
730.512	24035.9
731.69	24030.2
732.87	24025.7
734.048	24024.3
735.227	24027.9
736.405	24034.6
737.584	24052.2
738.761	24087.6
739.94	24124.2
741.117	24162
742.295	24170.9
743.471	24091.1
744.649	24150.2
745.825	24150.1
747.003	24165.9
748.179	24183
749.356	24197.5
750.531	24213.2
751.708	24222.2
752.883	24215.8
754.059	24174.9
755.234	24128.6
756.409	24120.5
757.585	24126.2
758.759	24150.5
759.934	24169.7
761.108	24141.4
762.282	24121.4
763.456	24113.2
764.63	24098
765.803	24092.2
766.977	24090.9
768.15	24097.5
769.323	24090.1
770.496	24090.4
771.668	24071.1
772.841	24040.3
774.014	24007.4
775.185	23973.8
776.357	23945.2
777.528	23937.5
778.701	23932
779.872	23940
781.042	23935.3
782.213	23939.4
783.383	23885.8
784.555	23851.1
785.725	23840.3
786.895	23829.6
788.064	23815.8
789.234	23800.2
790.404	23785.9
791.573	23773.2
792.742	23766.7
793.911	23765
795.08	23765.9
796.248	23765.8
797.416	23763.8
798.584	23757
799.753	23746.2
800.921	23734.1
802.088	23719.7
803.256	23702.8
804.423	23684
805.59	23662
806.756	23640
807.923	23641.7
809.089	23651.3
810.256	23685.2
811.422	23703.7
812.587	23716.9
813.753	23732.6
814.918	23737.5
816.084	23725.6
817.249	23730.6
818.414	23751.9
819.578	23777.1
820.743	23795.1
821.907	23804.7
823.072	23792.6
824.236	23776.1
825.399	23809.6
826.562	23810.5
827.725	23809.7
828.889	23807.2
830.052	23805
831.215	23801.8
832.377	23794.8
833.54	23789.4
834.701	23787.8
835.863	23788.2
837.025	23792.1
838.187	23801.6
839.349	23811.2
840.51	23818.9
841.67	23823
842.831	23820.9
843.992	23815.1
845.153	23806.4
846.312	23793.3
847.473	23777
848.633	23757.8
849.793	23737.9
850.951	23724.7
852.111	23718.8
853.27	23729.7
854.428	23732
855.588	23725.4
856.747	23713.8
857.904	23702
859.063	23673.9
860.221	23642.3
861.378	23608.2
862.536	23575
863.694	23551.3
864.85	23535.6
866.008	23523.4
867.164	23514.6
868.321	23509.8
869.478	23510.1
870.633	23507.7
871.79	23489.1
872.945	23471.2
874.101	23453.7
875.256	23434.9
876.412	23414.1
877.566	23391.3
878.722	23366.4
879.876	23339.9
881.031	23310.4
882.185	23275.4
883.34	23242.5
884.493	23221.1
885.647	23232.7
886.8	23250.7
887.954	23250.7
889.107	23257.7
890.261	23235.9
891.413	23228.4
892.565	23228.5
893.718	23226.3
894.87	23229.5
896.023	23221.4
897.174	23208.7
898.326	23193.1
899.478	23179.8
900.629	23189.3
901.779	23192.5
902.931	23213.9
904.081	23232.4
905.231	23246.8
906.383	23259
907.532	23250.5
908.682	23232.8
909.831	23210.5
910.982	23195.1
912.131	23186.6
913.28	23184
914.429	23195.5
915.578	23209.9
916.727	23225
917.875	23239.8
919.023	23252.2
920.171	23242.8
921.32	23228.4
922.467	23214.6
923.614	23203
924.761	23195.4
925.908	23203.9
927.055	23219
928.203	23217.3
929.349	23216.4
930.496	23215.7
931.642	23195.8
932.787	23181.7
933.933	23176.2
935.079	23177.3
936.224	23184
937.369	23193.1
938.514	23195.3
939.659	23194.6
940.804	23161.5
941.948	23139.2
943.092	23114.2
944.236	23110.7
945.38	23120.4
946.524	23135.6
947.667	23159.6
948.811	23162.5
949.954	23150.9
951.097	23123.3
952.24	23102
953.383	23079.2
954.525	23052.8
955.667	23024.9
956.81	22993.8
957.952	22961.3
959.093	22927.7
960.235	22893.9
961.376	22890.6
962.516	22885.6
963.658	22895.6
964.798	22913
965.939	22928.3
967.08	22948.7
968.22	22954.7
969.359	22939.8
970.499	22934.6
971.639	22918.4
972.779	22902.2
973.918	22890.4
975.056	22879.6
976.195	22881.2
977.334	22874.9
978.473	22876.5
979.61	22862.6
980.749	22843.8
981.887	22833.7
983.024	22823.4
984.162	22821.6
985.3	22825.4
986.437	22832.9
987.573	22845.4
988.711	22862.5
989.848	22879.7
990.983	22894
992.12	22895.7
993.255	22895.7
994.392	22887.2
995.528	22872.3
996.662	22854.7
997.798	22843.2
998.933	22834.7
1000.07	22828.3
1001.2	22823.5
1002.34	22820.2
1003.47	22818.5
1004.61	22817.9
1005.74	22818.9
1006.87	22820.7
1008.01	22825.2
1009.14	22822.3
1010.27	22796.3
1011.41	22769.8
1012.54	22740.7
1013.67	22795.2
1014.81	22802.2
1015.94	22803.1
1017.07	22807.5
1018.2	22803.7
1019.33	22797.7
1020.47	22791.3
1021.6	22784.1
1022.73	22776.4
1023.86	22768.3
1024.99	22760.2
1026.12	22756
1027.25	22750.6
1028.38	22745.9
1029.51	22734.3
1030.64	22716.7
1031.77	22690.1
1032.9	22653
1034.03	22624.7
1035.16	22596.3
1036.29	22571.5
1037.42	22551.7
1038.55	22535.7
1039.67	22526.9
1040.8	22528.1
1041.93	22529.9
1043.06	22531.8
1044.19	22517.2
1045.31	22499.5
1046.44	22479
1047.57	22456
1048.69	22431.1
1049.82	22405.6
1050.95	22382.6
1052.08	22359.7
1053.2	22337.7
1054.33	22316.1
1055.45	22295.5
1056.58	22279.6
1057.7	22271.3
1058.83	22285.3
1059.95	22300.7
1061.08	22304.1
1062.2	22308.3
1063.33	22303.5
1064.45	22289.8
1065.58	22266.9
1066.7	22239.7
1067.83	22226.4
1068.95	22225.4
1070.07	22237.4
1071.2	22263
1072.32	22292.2
1073.44	22301.1
1074.56	22302
1075.69	22298.6
1076.81	22282.9
1077.93	22280.1
1079.05	22278.6
1080.17	22276.7
1081.3	22275.2
1082.42	22274.9
1083.54	22274.8
1084.66	22257.3
1085.78	22237.3
1086.9	22219.9
1088.02	22213.1
1089.14	22211.9
1090.26	22216
1091.38	22225.9
1092.5	22242.3
1093.62	22264.1
1094.74	22293.2
1095.86	22324.3
1096.98	22320.7
1098.1	22301.9
1099.22	22261.7
1100.34	22260.5
1101.45	22261.1
1102.57	22264.2
1103.69	22268.9
1104.81	22276.7
1105.93	22278.8
1107.04	22265.2
1108.16	22238.9
1109.28	22206.2
1110.4	22176.9
1111.51	22160.2
1112.63	22145.2
1113.75	22141.5
1114.86	22140.2
1115.98	22119.3
1117.09	22093.8
1118.21	22056.9
1119.32	22022.3
1120.44	21990.9
1121.55	21962.6
1122.67	21953.3
1123.78	21941.8
1124.9	21928.9
1126.01	21914.5
1127.13	21899.4
1128.24	21882.7
1129.35	21865.3
1130.47	21845.5
1131.58	21812.8
1132.7	21774.5
1133.81	21729.8
1134.92	21678.1
1136.03	21657.1
1137.15	21661.2
1138.26	21703.9
1139.37	21723.8
1140.48	21733.2
1141.59	21720.7
1142.71	21661.9
1143.82	21625
1144.93	21586.4
1146.04	21546.1
1147.15	21526.3
1148.26	21517.2
1149.37	21519.3
1150.48	21529.7
1151.59	21522.2
1152.7	21501.1
1153.81	21472.2
1154.92	21417
1156.03	21378.1
1157.14	21409.1
1158.25	21455
1159.36	21466.3
1160.47	21468.7
1161.58	21460.4
1162.68	21442.9
1163.79	21412
1164.9	21376.3
1166.01	21362.6
1167.12	21364.3
1168.22	21383.9
1169.33	21408.6
1170.44	21428.5
1171.55	21444.3
1172.65	21450.6
1173.76	21441.7
1174.87	21426.9
1175.97	21408.2
1177.08	21409.7
1178.18	21408.2
1179.29	21407.6
1180.4	21406.7
1181.5	21407.7
1182.61	21407.6
1183.71	21406
1184.82	21404
1185.92	21401.8
1187.02	21399.3
1188.13	21399.5
1189.23	21404.7
1190.34	21408.5
1191.44	21412.5
1192.54	21417.6
1193.65	21424.1
1194.75	21431.8
1195.85	21440
1196.96	21448.8
1198.06	21456.6
1199.16	21463.3
1200.26	21469.6
1201.37	21475.1
1202.47	21431.6
1203.57	21377.5
1204.67	21429.2
1205.77	21457
1206.87	21451.6
1207.97	21448.5
1209.08	21362.9
1210.18	21382.5
1211.28	21396
1212.38	21407.1
1213.48	21413
1214.58	21414.3
1215.68	21409.1
1216.78	21393.7
1217.88	21375.6
1218.98	21362.2
1220.07	21353.2
1221.17	21346
1222.27	21340.6
1223.37	21333.1
1224.47	21318
1225.57	21291.4
1226.66	21269.7
1227.76	21251
1228.86	21238.4
1229.96	21229.9
1231.06	21222.5
1232.15	21214.1
1233.25	21204.3
1234.35	21190.6
1235.44	21170.2
1236.54	21135.2
1237.63	21098.5
1238.73	21066.2
1239.83	21051.5
1240.92	21041.9
1242.02	21036.2
1243.11	21040.8
1244.21	21051.2
1245.3	21048.9
1246.4	21030.9
1247.49	21010.5
1248.59	20990.3
1249.68	20968.9
1250.78	20951.3
1251.87	20940.2
1252.96	20946.5
1254.06	20961.2
1255.15	20954
1256.24	20937
1257.34	20928.5
1258.43	20919.9
1259.52	20915.4
1260.62	20916.5
1261.71	20917.7
1262.8	20914.4
1263.89	20902.5
1264.98	20889.7
1266.08	20874.8
1267.17	20865.9
1268.26	20864.4
1269.35	20865
1270.44	20869.1
1271.53	20878.4
1272.62	20891.8
1273.71	20907.7
1274.8	20924.6
1275.89	20925.2
1276.98	20926.1
1278.07	20915.5
1279.16	20896.9
1280.25	20879.8
1281.34	20872
1282.43	20875.6
1283.52	20886.1
1284.61	20896.8
1285.69	20904.2
1286.78	20909.7
1287.87	20915
1288.96	20919.3
1290.05	20922.6
1291.13	20925
1292.22	20926.8
1293.31	20928.2
1294.4	20929
1295.48	20929.4
1296.57	20928.2
1297.66	20926.1
1298.74	20921.1
1299.83	20914.3
1300.92	20906
1302	20897.2
1303.09	20890.2
1304.17	20884.5
1305.26	20892.1
1306.34	20898.6
1307.43	20904.3
1308.51	20908.8
1309.6	20911.3
1310.68	20907.9
1311.76	20901.5
1312.85	20882.9
1313.93	20864.8
1315.02	20850.6
1316.1	20836.6
1317.18	20823
1318.27	20810.9
1319.35	20800.7
1320.43	20792.4
1321.52	20785.8
1322.6	20779
1323.68	20773.1
1324.76	20767.6
1325.85	20760.5
1326.93	20755
1328.01	20746.2
1329.09	20732.8
1330.17	20715.7
1331.25	20699.5
1332.33	20686.1
1333.41	20677.1
1334.49	20669.9
1335.58	20663.8
1336.65	20660
1337.74	20658.8
1338.82	20656.6
1339.89	20651.9
1340.97	20647.7
1342.05	20634.1
1343.13	20621.9
1344.21	20610.9
1345.29	20601.8
1346.37	20594.5
1347.45	20592.8
1348.53	20592.8
1349.6	20587.2
1350.68	20581.6
1351.76	20576
1352.84	20569.9
1353.92	20569.2
1354.99	20568.9
1356.07	20567.7
1357.15	20564.3
1358.22	20564.7
1359.3	20557.8
1360.38	20536
1361.45	20523.2
1362.53	20519.4
1363.61	20518.8
1364.68	20524.9
1365.76	20546.4
1366.83	20552.1
1367.91	20541.6
1368.98	20535.1
1370.06	20520.7
1371.13	20502.3
1372.21	20486.3
1373.28	20482.6
1374.35	20483.4
1375.43	20493.2
1376.5	20504.2
1377.58	20519.3
1378.65	20523.6
1379.72	20521.8
1380.8	20513
1381.87	20489.2
1382.94	20463.1
1384.01	20442.4
1385.09	20421.9
1386.16	20402.6
1387.23	20394
1388.3	20395.3
1389.38	20399.6
1390.45	20404.3
1391.52	20407.8
1392.59	20412.2
1393.66	20413.7
1393.92	20412.9
1395	20417.2
1396.07	20421.4
1397.15	20425.1
1398.22	20427.9
1399.3	20429.7
1400.38	20429.2
1401.45	20419.2
1402.53	20394.5
1403.6	20365
1404.68	20328.8
1405.75	20302.2
1406.82	20286.1
1407.9	20289.7
1408.97	20303
1410.05	20316.4
1411.12	20334.8
1412.19	20331.9
1413.27	20311
1414.34	20282.5
1415.41	20242.9
1416.49	20171.1
1417.56	20159.2
1418.63	20173
1419.7	20197.8
1420.78	20228.2
1421.85	20223.5
1422.92	20208.4
1423.99	20177.6
1425.06	20147.5
1426.14	20123
1427.21	20103.7
1428.28	20089.7
1429.35	20084.4
1430.42	20084.7
1431.49	20090.5
1432.56	20102
1433.63	20121.6
1434.7	20140.5
1435.77	20148.8
1436.84	20154.7
1437.91	20147.5
1438.98	20141.2
1440.05	20136.3
1441.12	20132.1
1442.18	20127.9
1443.25	20124
1444.32	20119.8
1445.39	20115.8
1446.46	20097.4
1447.53	20066.6
1448.59	20035.3
1449.66	20013.3
1450.73	19999.1
1451.8	19992.2
1452.86	19990.3
1453.93	19996
1455	20011
1456.06	20024.4
1457.13	20032.7
1458.2	20016.2
1459.26	19997.9
1460.33	19984.7
1461.39	19971.9
1462.46	19956.8
1463.52	19943.4
1464.59	19930.3
1465.65	19919.9
1466.72	19913.6
1467.78	19913.7
1468.85	19940.4
1469.91	19954.9
1470.98	19967.2
1472.04	19965.4
1473.1	19958.7
1474.17	19948.6
1475.23	19935.5
1476.3	19921.8
1477.36	19910.4
1478.42	19902.8
1479.48	19897.3
1480.55	19893.4
1481.61	19890.1
1482.67	19880.5
1483.73	19865.4
1484.8	19846.3
1485.86	19824.5
1486.92	19799.2
1487.98	19786.5
1489.04	19779
1490.1	19776.6
1491.17	19779.3
1492.23	19786.4
1493.29	19799.5
1494.35	19814.6
1495.41	19819.1
1496.47	19821.7
1497.53	19822.5
1498.59	19816
1499.65	19806.9
1500.71	19796.1
1501.77	19784.4
1502.83	19768.7
1503.88	19748.7
1504.94	19725.8
1506	19698.5
1507.06	19670.1
1508.12	19648.3
1509.18	19627.8
1510.23	19624.2
1511.29	19625.8
1512.35	19633.6
1513.41	19646.4
1514.47	19661.7
1515.52	19672.9
1516.58	19664.4
1517.64	19649.6
1518.69	19627.5
1519.75	19584.5
1520.81	19546.6
1521.86	19525.3
1522.92	19521.5
1523.97	19513.2
1525.03	19509.7
1526.08	19516
1527.14	19518.5
1528.2	19518.6
1529.25	19514.7
1530.31	19515.8
1531.36	19496.6
1532.42	19480
1533.47	19467.9
1534.52	19447.3
1535.58	19430.9
1536.63	19423
1537.69	19423.1
1538.74	19427.4
1539.79	19431.7
1540.84	19435.8
1541.9	19430
1542.95	19424
1544	19416.2
1545.06	19403.3
1546.11	19388.2
1547.16	19371.8
1548.21	19359.2
1549.27	19359.7
1550.32	19361.9
1551.37	19364.2
1552.42	19369.5
1553.47	19374
1554.52	19373.4
1555.57	19370
1556.62	19363.9
1557.67	19354.8
1558.72	19343.1
1559.77	19327.4
1560.82	19320
1561.87	19325.8
1562.92	19329.2
1563.97	19329.5
1565.02	19326.8
1566.07	19322
1567.12	19316.5
1568.17	19308.7
1569.22	19301.7
1570.27	19295.4
1571.32	19289
1572.36	19289.3
1573.41	19284.4
1574.46	19278.6
1575.51	19272.9
1576.56	19264.7
1577.6	19256.2
1578.65	19246.2
1579.7	19235.5
1580.74	19227.6
1581.79	19225.8
1582.84	19238.4
1583.88	19249.1
1584.93	19251.1
1585.98	19246.4
1587.02	19238.3
1588.07	19226.8
1589.11	19211.4
1590.16	19198.5
1591.2	19187.7
1592.25	19178.7
1593.29	19163.7
1594.34	19145.1
1595.38	19125.2
1596.43	19106.1
1597.47	19090.2
1598.52	19075
1599.56	19061.2
1600.6	19048.1
1601.65	19036.4
1602.69	19025.9
1603.73	19017.8
1604.78	19017.2
1605.82	19014.4
1606.86	19011.1
1607.91	19001.5
1608.95	18979.9
1609.99	18952.7
1611.03	18923.4
1612.08	18890.9
1613.12	18880.8
1614.16	18877.7
1615.2	18880.8
1616.24	18880.4
1617.28	18882.7
1618.32	18877
1619.36	18861.4
1620.41	18839.1
1621.45	18821
1622.49	18804.6
1623.53	18788.3
1624.57	18771.5
1625.61	18754.8
1626.65	18738.5
1627.69	18722.5
1628.73	18706.4
1629.76	18690.6
1630.8	18674.7
1631.84	18660.3
1632.88	18649
1633.92	18641.4
1634.96	18626.4
1636	18602.8
1637.03	18585.4
1638.07	18584.7
1639.11	18577.3
1640.15	18587.6
1641.19	18590.1
1642.22	18590.3
1643.26	18585.8
1644.3	18575.3
1645.33	18554.4
1646.37	18531.1
1647.41	18508.6
1648.44	18496.4
1649.48	18488.3
1650.52	18482
1651.55	18469.4
1652.59	18453.5
1653.62	18435.8
1654.66	18422.3
1655.69	18415
1656.73	18411.2
1657.76	18408.5
1658.8	18408.9
1659.83	18410.5
1660.87	18412.8
1661.9	18411.4
1662.93	18387.3
1663.97	18359.8
1665	18342.1
1666.04	18331.8
1667.07	18332.5
1668.1	18329.4
1669.14	18338.7
1670.17	18355.4
1671.2	18366.4
1672.23	18352
1673.27	18316.5
1674.3	18290.2
1675.33	18271.7
1676.36	18262.9
1677.39	18264.5
1678.43	18278.3
1679.46	18277.1
1680.49	18273.6
1681.52	18269.1
1682.55	18264.2
1683.58	18260.3
1684.61	18255.4
1685.64	18250.3
1686.67	18243.4
1687.7	18232.9
1688.73	18216.8
1689.76	18185.5
1690.79	18145.7
1691.82	18133.6
1692.85	18140.2
1693.88	18174.2
1694.91	18177.2
1695.94	18173
1696.97	18163.5
1698	18149.6
1699.02	18131.7
1700.05	18110.5
1701.08	18086.5
1702.11	18067.5
1703.14	18059.8
1704.16	18061.8
1705.19	18071.1
1706.22	18072.8
1707.25	18060.7
1708.27	18034.5
1709.3	18015.5
1710.33	17997.9
1711.35	17973.9
1712.38	17952.2
1713.41	17929.6
1714.43	17909.5
1715.46	17896.5
1716.48	17891
1717.51	17890.5
1718.53	17886.2
1719.56	17879.7
1720.58	17872.9
1721.61	17864.5
1722.63	17855.2
1723.66	17845.7
1724.68	17836.6
1725.71	17827.6
1726.73	17821.4
1727.75	17818.4
1728.78	17807.8
1729.8	17788.6
1730.83	17716.4
1731.85	17723.5
1732.87	17731.4
1733.89	17713.4
1734.92	17687
1735.94	17662.4
1736.96	17641
1737.98	17622.7
1739.01	17609.8
1740.03	17608.7
1741.05	17613.4
1742.07	17614.1
1743.09	17611.4
1744.12	17605.1
1745.14	17595.1
1746.16	17580.7
1747.18	17561.2
1748.2	17537.2
1749.22	17511.9
1750.24	17493.6
1751.26	17477.7
1752.28	17464.1
1753.3	17453.5
1754.32	17445.5
1755.34	17440.8
1756.36	17438.7
1757.38	17439.3
1758.4	17441.2
1759.42	17444.3
1760.44	17448.1
1761.45	17452.5
1762.47	17453.7
1763.49	17449
1764.51	17436.1
1765.53	17405.7
1766.55	17378.3
1767.56	17355.4
1768.58	17350
1769.6	17347.9
1770.61	17337.2
1771.63	17324.7
1772.65	17313.2
1773.67	17299.2
1774.68	17287.6
1775.7	17271.8
1776.72	17255.3
1777.73	17246.3
1778.75	17259.8
1779.76	17283.1
1780.78	17284.2
1781.79	17274.8
1782.81	17250.7
1783.83	17220.7
1784.84	17235.4
1785.85	17235.8
1786.87	17224
1787.88	17205.6
1788.9	17153.7
1789.91	17129.7
1790.93	17107.8
1791.94	17123.7
1792.95	17120
1793.97	17118.9
1794.98	17120.2
1796	17110.8
1797.01	17094.1
1798.02	17079.2
1799.03	17066.2
1800.05	17052.3
1801.06	17037.4
1802.07	17021.3
1803.08	17004.8
1804.1	16988
1805.11	16971.9
1806.12	16956.9
1807.13	16943.8
1808.14	16930.1
1809.15	16917.8
1810.17	16908.7
1811.18	16907
1812.19	16913.6
1813.2	16915.6
1814.21	16915.7
1815.22	16914.7
1816.23	16911.3
1817.24	16733.4
1818.25	16744.4
1819.26	16739.3
1820.27	16751.4
1821.28	16762.4
1822.29	16767.4
1823.3	16766.7
1824.3	16748.1
1825.31	16730
1826.32	16710.3
1827.33	16689
1828.34	16664.6
1829.35	16639.3
1830.35	16614
1831.36	16588.3
1832.37	16566.7
1833.38	16549.9
1834.38	16537
1835.39	16534.6
1836.4	16534.7
1837.41	16543.6
1838.41	16544.5
1839.42	16533.6
1840.43	16521.6
1841.43	16500.1
1842.44	16473.3
1843.44	16441
1844.45	16407.1
1845.46	16417
1846.46	16431.8
1847.47	16434.9
1848.47	16414.7
1849.48	16386.4
1850.48	16367.9
1851.49	16350.8
1852.49	16334.2
1853.49	16319.4
1854.5	16305.4
1855.5	16292.5
1856.51	16280.1
1857.51	16268.7
1858.51	16255.7
1859.52	16246.2
1860.52	16240.6
1861.52	16235.3
1862.53	16230.1
1863.53	16223.8
1864.53	16217.4
1865.54	16205.4
1866.54	16188.8
1867.54	16167.5
1868.54	16148.9
1869.54	16130.6
1870.55	16114.3
1871.55	16102.6
1872.55	16106.1
1873.55	16103.9
1874.55	16112
1875.55	16106.8
1876.55	16093.7
1877.55	16063.3
1878.55	16039.8
1879.55	16022.3
1880.56	16010.6
1881.55	16000.8
1882.56	16010.5
1883.55	16010.9
1884.55	16002.4
1885.55	15986.6
1886.55	15964.9
1887.55	15943.8
1888.55	15936.8
1889.55	15928.8
1890.55	15922.6
1891.55	15915.5
1892.55	15909.3
1893.54	15903.6
1894.54	15898.6
1895.54	15894.2
1896.54	15890.5
1897.54	15887.3
1898.53	15884.7
1899.53	15875.8
1900.53	15851
1901.52	15828.5
1902.52	15802.8
1903.52	15775.5
1904.51	15771.6
1905.51	15769.6
1906.51	15762.8
1907.5	15751.5
1908.5	15735.8
1909.49	15715.4
1910.49	15691.3
1911.49	15663.3
1912.48	15631.4
1913.48	15597
1914.47	15568.8
1915.46	15580.9
1916.46	15594.7
1917.45	15603
1918.45	15603.7
1919.44	15597.8
1920.44	15576.7
1921.43	15553.9
1922.43	15525
1923.42	15497.6
1924.41	15474.6
1925.41	15455.5
1926.4	15443.1
1927.39	15449.2
1928.38	15448.3
1929.38	15431.7
1930.37	15413.3
1931.36	15400
1932.35	15382.8
1933.35	15372.7
1934.34	15364.7
1935.33	15359.4
1936.32	15356.5
1937.31	15355.8
1938.3	15357.6
1939.29	15359.5
1940.29	15354.1
1941.28	15323.3
1942.27	15269.5
1943.26	15239.5
1944.25	15223.6
1945.24	15207
1946.23	15190.6
1947.22	15175.7
1948.21	15163
1949.2	15151.5
1950.19	15140.7
1951.18	15130.3
1952.17	15119
1953.16	15106.6
1954.14	15092.6
1955.13	15076.8
1956.12	15059.2
1957.11	15040.4
1958.1	15021.2
1959.09	15003.6
1960.07	14996.7
1961.06	14989.7
1962.05	14984.4
1963.04	14980.8
1964.02	14979.3
1965.01	14979.2
1966	14979
1966.99	14970.9
1967.97	14948.7
1968.96	14907
1969.95	14847.7
1970.93	14815.5
1971.92	14817.3
1972.9	14870
1973.89	14885.1
1974.88	14888
1975.86	14823.9
1976.85	14785.2
1977.83	14751.5
1978.82	14723.4
1979.8	14701.5
1980.79	14685
1981.77	14683.3
1982.76	14685.4
1983.74	14694.6
1984.72	14704.3
1985.71	14705.4
1986.69	14704.4
1987.67	14699.1
1988.66	14694.1
1989.64	14687.5
1990.62	14678.9
1991.61	14669.5
1992.59	14650
1993.57	14631.7
1994.56	14601.5
1995.54	14570.4
1996.52	14539.2
1997.5	14509.8
1998.49	14497.1
1999.47	14489.8
2000.45	14486.7
2001.43	14494.3
2002.41	14503.6
2003.39	14514.6
2004.38	14513.8
2005.36	14509.7
2006.34	14501.3
2007.32	14484.1
2008.3	14460.9
2009.28	14431.9
2010.26	14402
2011.24	14381.9
2012.22	14364
2013.2	14346.2
2014.18	14328.7
2015.16	14313.6
2016.14	14301.8
2017.12	14294.8
2018.1	14290.7
2019.07	14291.2
2020.05	14295.3
2021.03	14303.4
2022.01	14314.3
2022.99	14297.3
2023.97	14212.1
2024.95	14179.1
2025.92	14159.9
2026.9	14190.8
2027.88	14181.6
2028.86	14157.6
2029.83	14147.7
2030.81	14140
2031.79	14128.4
2032.76	14116.2
2033.74	14099.2
2034.72	14081.3
2035.69	14061
2036.67	14044.8
2037.65	14024.7
2038.62	14006.3
2039.6	13990.9
2040.57	13978.3
2041.55	13969.1
2042.52	13957.7
2043.5	13937.1
2044.47	13917.1
2045.45	13908
2046.42	13898.5
2047.4	13884.1
2048.37	13868.8
2049.35	13852.7
2050.32	13831.3
2051.29	13808.9
2052.27	13787.6
2053.24	13768.4
2054.21	13753.7
2055.19	13753.1
2056.16	13760.3
2057.13	13767.2
2058.11	13770.7
2059.08	13769
2060.05	13762.4
2061.02	13750.1
2062	13732.9
2062.97	13710.8
2063.94	13684.1
2064.91	13685.2
2065.89	13683.8
2066.86	13668.8
2067.83	13649.5
2068.8	13624.2
2069.77	13590.7
2070.74	13553.6
2071.71	13524.3
2072.68	13503.8
2073.65	13502.6
2074.62	13503.3
2075.59	13507.9
2076.56	13514.6
2077.53	13520.8
2078.5	13514.8
2079.47	13497.9
2080.44	13482.6
2081.41	13463.3
2082.38	13446.5
2083.35	13429.9
2084.32	13413.4
2085.29	13396.9
2086.26	13381.9
2087.23	13370.3
2088.19	13360
2089.16	13349.8
2090.13	13340.1
2091.1	13323.4
2092.07	13300.3
2093.03	13281.3
2094	13266.7
2094.97	13251.7
2095.94	13243.1
2096.9	13249.1
2097.87	13248.1
2098.84	13248.3
2099.8	13240.6
2100.77	13226.4
2101.74	13203.4
2102.7	13177.3
2103.67	13152.5
2104.63	13143.9
2105.6	13137.6
2106.56	13129.6
2107.53	13120.4
2108.49	13109.9
2109.46	13098.2
2110.42	13085.3
2111.39	13071.5
2112.35	13056.6
2113.32	13047.3
2114.28	13039.7
2115.25	13032.3
2116.21	13018.6
2117.17	12980.8
2118.14	12947.3
2119.1	12921.1
2120.07	12921.1
2121.03	12938
2121.99	12951.3
2122.96	12916.7
2123.92	12887.6
2124.88	12864.2
2125.84	12842.5
2126.81	12826.9
2127.77	12863.9
2128.73	12894
2129.69	12877.6
2130.65	12864.7
2131.62	12842.1
2132.58	12814
2133.54	12779.5
2134.5	12742.4
2135.46	12712
2136.42	12686.8
2137.38	12664.8
2138.34	12646.7
2139.3	12631.9
2140.26	12621.1
2141.22	12614.7
2142.18	12613.5
2143.14	12624.9
2144.1	12643.7
2145.06	12650.6
2146.02	12644.8
2146.98	12627.1
2147.94	12552.9
2148.9	12561.3
2149.86	12566.9
2150.82	12569.3
2151.78	12568.8
2152.74	12565.9
2153.69	12560.4
2154.65	12532.9
2155.61	12489.6
2156.57	12452.5
2157.53	12421.2
2158.48	12397.5
2159.44	12385.4
2160.4	12384.7
2161.36	12401.9
2162.31	12412.2
2163.27	12408.9
2164.23	12394.1
2165.18	12369.2
2166.14	12335.9
2167.1	12299.2
2168.05	12272.5
2169.01	12249.4
2169.96	12248.9
2170.92	12237.7
2171.88	12229.1
2172.83	12222.4
2173.79	12203.8
2174.74	12174.5
2175.7	12137.4
2176.65	12079.2
2177.6	12031.8
2178.56	12001
2179.51	12015.2
2180.47	12037.3
2181.42	12063.4
2182.38	12099.2
2183.33	12049.9
2184.28	12019.9
2185.24	11994.2
2186.19	11969.1
2187.14	11944.6
2188.1	11919.8
2189.05	11904.9
2190	11904.2
2190.96	11899.5
2191.91	11902.3
2192.86	11892.8
2193.81	11863.2
2194.76	11845
2195.72	11839.4
2196.67	11844.3
2197.62	11830.1
2198.57	11814.7
2199.52	11798.1
2200.47	11782.7
2201.43	11770.1
2202.38	11761.5
2203.33	11755.9
2204.28	11754.4
2205.23	11750
2206.18	11739.1
2207.13	11725.6
2208.08	11696.8
2209.03	11670.6
2209.98	11643.4
2210.93	11615.3
2211.88	11630.8
2212.83	11641.7
2213.78	11636.7
2214.73	11623.1
2215.67	11598
2216.62	11579.9
2217.57	11560.1
2218.52	11538.6
2219.47	11519.1
2220.42	11501
2221.37	11485.4
2222.31	11473.5
2223.26	11471.4
2224.21	11478.9
2225.16	11480.1
2226.1	11478.9
2227.05	11471.6
2228	11450.6
2228.94	11427.4
2229.89	11412.2
2230.84	11401.9
2231.78	11393.4
2232.73	11389.4
2233.68	11387.9
2234.62	11390.2
2235.57	11397.2
2236.51	11405.7
2237.46	11410.8
2238.41	11415.6
2239.35	11409.6
2240.3	11401.6
2241.24	11391.7
2242.19	11379.7
2243.13	11366.2
2244.07	11351.6
2245.02	11336.6
2245.96	11321.7
2246.91	11308.1
2247.85	11297.3
2248.8	11288.1
2249.74	11293.6
2250.68	11305
2251.63	11313.6
2252.57	11322.5
2253.51	11326.2
2254.46	11332.7
2255.4	11313.4
2256.34	11294.5
2257.28	11278.9
2258.23	11266.7
2259.17	11256.9
2260.11	11249.5
2261.05	11244.3
2262	11242.1
2262.94	11241
2263.88	11241.4
2264.82	11242.3
2265.76	11243.3
2266.7	11243.1
2267.64	11235.1
2268.58	11221.6
2269.53	11206.4
2270.47	11198.8
2271.41	11189.6
2272.35	11180.5
2273.29	11173
2274.23	11172.3
2275.17	11172.1
2276.11	11174.8
2277.05	11172.7
2277.99	11158.2
2278.93	11146.3
2279.86	11130.8
2280.8	11114.8
2281.74	11102.5
2282.68	11099.1
2283.62	11116.3
2284.56	11131.7
2285.5	11146.1
2286.44	11144.5
2287.37	11135.1
2288.31	11124.6
2289.25	11117.1
2290.19	11107.9
2291.12	11095.9
2292.06	11085.5
2293	11069.9
2293.94	11056.5
2294.87	11041.1
2295.81	11032.2
2296.75	11035.1
2297.68	11039.2
2298.62	11043.3
2299.55	11044.8
2300.49	11043.2
2301.43	11038.2
2302.36	11028.6
2303.3	11017.3
2304.23	11004.4
2305.17	10990.4
2306.1	10974.9
2307.04	10963.5
2307.98	10962.1
2308.91	10960.5
2309.84	10955.9
2310.78	10950.9
2311.71	10944.8
2312.65	10937.4
2313.58	10928.3
2314.52	10917.6
2315.45	10905.5
2316.38	10892.5
2317.32	10875.5
2317.72	10868
2318.66	10851.3
2319.6	10833.1
2320.54	10813.9
2321.48	10796.6
2322.41	10780.5
2323.35	10768.5
2324.29	10763.3
2325.23	10758.8
2326.16	10756.2
2327.1	10747.4
2328.04	10738.9
2328.97	10717.5
2329.91	10700.4
2330.85	10689
2331.78	10679.6
2332.72	10676.9
2333.66	10675.8
2334.59	10673.6
2335.53	10675
2336.46	10661.9
2337.4	10649.5
2338.33	10635.2
2339.27	10644
2340.2	10656.7
2341.14	10657.4
2342.07	10652.5
2343.01	10645.8
2343.94	10636.3
2344.88	10624.9
2345.81	10610.6
2346.75	10594.2
2347.68	10575.7
2348.61	10556.1
2349.55	10545
2350.48	10523.2
2351.41	10523.6
2352.35	10542.4
2353.28	10562.4
2354.21	10569.5
2355.15	10550
2356.08	10522.9
2357.01	10505.6
2357.94	10499.6
2358.88	10504
2359.81	10491.3
2360.74	10476.1
2361.67	10460.6
2362.6	10444.8
2363.54	10429
2364.47	10413.4
2365.4	10396.8
2366.33	10423
2367.26	10437.1
2368.19	10434.9
2369.12	10433.3
2370.05	10394.8
2370.98	10378.4
2371.91	10382.8
2372.84	10389.5
2373.77	10393.9
2374.7	10395.2
2375.63	10393.2
2376.56	10388.1
2377.49	10380.2
2378.42	10369.7
2379.35	10356.5
2380.28	10341
2381.21	10324.2
2382.14	10311.1
2383.07	10301.2
2384	10306.2
2384.92	10307.8
2385.85	10306.4
2386.78	10301.3
2387.71	10293.1
2388.64	10269.5
2389.56	10264.1
2390.49	10264.2
2391.42	10272.5
2392.35	10270.3
2393.27	10267.9
2394.2	10262.9
2395.13	10251.6
2396.05	10235.4
2396.98	10218.9
2397.91	10204.7
2398.83	10197.7
2399.76	10190.9
2400.69	10182.8
2401.61	10173.8
2402.54	10165.2
2403.46	10156.6
2404.39	10147.9
2405.31	10138.8
2406.24	10130.7
2407.17	10122.6
2408.09	10114.8
2409.01	10105.2
2409.94	10091.2
2410.86	10077.6
2411.79	10068.6
2412.71	10061.6
2413.64	10055.7
2414.56	10050.4
2415.49	10046.5
2416.41	10042.4
2417.33	10033.8
2418.26	10024
2419.18	10014.2
2420.1	10005.1
2421.03	9996.97
2421.95	9988.6
2422.87	9981.05
2423.79	9973.62
2424.72	9966.95
2425.64	9959.22
2426.56	9941.88
2427.48	9910.38
2428.41	9881.22
2429.33	9862.44
2430.25	9853.31
2431.17	9850.2
2432.09	9845.93
2433.01	9843.16
2433.93	9840.33
2434.86	9836.89
2435.78	9832.88
2436.7	9829.19
2437.62	9825.02
2438.54	9820.06
2439.46	9813.86
2440.38	9804.64
2441.3	9791.3
2442.22	9769.28
2443.14	9748.31
2444.06	9728.24
2444.98	9709.8
2445.9	9697.53
2446.82	9686.36
2447.73	9677.79
2448.65	9671.36
2449.57	9667.88
2450.49	9664.98
2451.41	9647.01
2452.33	9628.69
2453.25	9619.74
2454.17	9644.38
2455.08	9645.75
2456	9648.07
2456.92	9630.05
2457.84	9618.26
2458.75	9588.45
2459.67	9566.14
2460.59	9563.27
2461.51	9560.28
2462.42	9550.7
2463.34	9535.91
2464.26	9523.79
2465.17	9511.87
2466.09	9500.96
2467	9490.88
2467.92	9481.88
2468.84	9475.79
2469.75	9471.12
2470.67	9468.36
2471.58	9467.23
2472.5	9467.92
2473.42	9469.99
2474.33	9474.12
2475.25	9476.55
2476.16	9475.25
2477.08	9467.36
2477.99	9441.64
2478.9	9419.51
2479.82	9398.62
2480.73	9383.09
2481.65	9369.93
2482.56	9359.59
2483.47	9352.11
2484.39	9347.46
2485.3	9345.93
2486.22	9347.17
2487.13	9349.13
2488.04	9351.07
2488.96	9335.75
2489.87	9329.59
2490.78	9323.06
2491.69	9317.38
2492.61	9313.14
2493.52	9318.57
2494.43	9319.45
2495.34	9313.85
2496.25	9305.07
2497.17	9292.11
2498.08	9286.76
2498.99	9281.31
2499.9	9275.49
2500.81	9269.7
2501.72	9263.23
2502.63	9258.27
2503.55	9250.32
2504.46	9236.75
2505.37	9215.24
2506.28	9208.23
2507.19	9208.44
2508.1	9212.17
2509.01	9214.93
2509.92	9212.74
2510.83	9211.48
2511.74	9203.71
2512.65	9193.08
2513.56	9178.74
2514.47	9164.83
2515.37	9180.87
2516.28	9190.76
2517.19	9196.44
2518.1	9184.97
2519.01	9143
2519.92	9131.15
2520.83	9120.08
2521.73	9109.68
2522.64	9103.45
2523.55	9100.83
2524.46	9102.59
2525.37	9110.07
2526.27	9113.03
2527.18	9108.44
2528.09	9084.54
2529	9076.07
2529.9	9068.07
2530.81	9060.18
2531.72	9052.54
2532.62	9046.1
2533.53	9042.33
2534.44	9038.03
2535.34	9026.87
2536.25	9005.09
2537.15	8998.12
2538.06	8999.48
2538.96	8996.99
2539.87	8994.92
2540.78	8994.6
2541.68	8993.32
2542.59	8990.11
2543.49	8985.16
2544.4	8977.71
2545.3	8964.37
2546.21	8946.84
2547.11	8928.04
2548.01	8908.9
2548.92	8890.59
2549.82	8876.26
2550.73	8863.48
2551.63	8851.95
2552.53	8845.81
2553.44	8846.48
2554.34	8851.27
2555.24	8852.94
2556.15	8850.13
2557.05	8846.42
2557.95	8840.69
2558.86	8832.82
2559.76	8822.84
2560.66	8811.12
2561.56	8797.12
2562.46	8782.84
2563.37	8772.92
2564.27	8766.82
2565.17	8757.67
2566.07	8746.65
2566.97	8734.19
2567.88	8721.15
2568.78	8707.26
2569.68	8694.94
2570.58	8689.76
2571.48	8691.26
2572.38	8677.99
2573.28	8664.02
2574.18	8650.37
2575.08	8637.17
2575.98	8624.53
2576.88	8610.98
2577.78	8596.72
2578.68	8581.79
2579.58	8571.07
2580.48	8582.67
2581.38	8603.43
2582.28	8599.93
2583.18	8590.38
2584.08	8581.87
2584.98	8572.67
2585.88	8560.12
2586.77	8545.87
2587.67	8530.63
2588.57	8514.78
2589.47	8498.88
2590.37	8484.32
2591.27	8481.95
2592.16	8475.51
2593.06	8459.88
2593.96	8448.05
2594.86	8437.65
2595.75	8427.62
2596.65	8418.59
2597.55	8410.36
2598.45	8403.42
2599.34	8400.87
2600.24	8403.38
2601.13	8401.58
2602.03	8395.45
2602.93	8384.66
2603.82	8375.63
2604.72	8363.47
2605.62	8353.17
2606.51	8347.2
2607.41	8343.33
2608.3	8341.13
2609.2	8340.89
2610.09	8341.32
2610.99	8347.19
2611.88	8332.17
2612.78	8303.52
2613.67	8269.45
2614.57	8259.23
2615.46	8258.13
2616.36	8261.58
2617.25	8260.63
2618.14	8255.34
2619.04	8251.18
2619.93	8245.44
2620.83	8238.08
2621.72	8229.15
2622.61	8218.68
2623.5	8206.39
2624.4	8192.58
2625.29	8175.74
2626.18	8169.68
2627.08	8169.61
2627.97	8168.11
2628.86	8164.84
2629.75	8160.07
2630.65	8155.02
2631.54	8148.4
2632.43	8140.25
2633.32	8130.75
2634.21	8119.98
2635.11	8107.67
2636	8094.48
2636.89	8078.55
2637.78	8052.96
2638.67	8027.09
2639.56	8013.06
2640.45	8011.79
2641.34	8009.32
2642.23	8005.75
2643.12	8001.05
2644.01	7993.64
2644.9	7986.05
2645.79	7976.51
2646.68	7965.75
2647.57	7953.24
2648.46	7938.64
2649.35	7921.01
2650.24	7896.92
2651.13	7881.58
2652.02	7881.99
2652.91	7886.93
2653.8	7895.2
2654.69	7897.31
2655.58	7891.12
2656.46	7880.44
2657.35	7870.87
2658.24	7860.82
2659.13	7849.13
2660.02	7837.26
2660.9	7824.04
2661.79	7810.88
2662.68	7797.21
2663.57	7786.06
2664.45	7790.07
2665.34	7797.73
2666.23	7809.82
2667.11	7818.13
2668	7823.17
2668.89	7820.23
2669.77	7805.15
2670.66	7773.45
2671.55	7750.68
2672.43	7734.78
2673.32	7724.02
2674.21	7717.79
2675.09	7715.38
2675.98	7717.11
2676.86	7722.1
2677.75	7731.95
2678.63	7744.28
2679.52	7733.04
2680.4	7713.37
2681.29	7680.39
2682.17	7645.57
2683.06	7633.94
2683.94	7620.63
2684.82	7610.93
2685.71	7605.45
2686.59	7602.84
2687.48	7602.45
2688.36	7602.99
2689.24	7602.52
2690.13	7597.03
2691.01	7579.89
2691.89	7563.84
2692.78	7547.2
2693.66	7541.59
2694.54	7528.14
2695.43	7510.39
2696.31	7489.97
2697.19	7474.49
2698.07	7461.49
2698.96	7454.23
2699.84	7448.17
2700.72	7443.12
2701.6	7439.64
2702.48	7436.08
2703.36	7431.43
2704.25	7425.76
2705.13	7419.59
2706.01	7412.87
2706.89	7404.68
2707.77	7395.65
2708.65	7385.59
2709.53	7377.65
2710.41	7387.15
2711.29	7397.32
2712.17	7398.08
2713.05	7394.1
2713.93	7385.29
2714.81	7370.4
2715.69	7353.77
2716.57	7346.61
2717.45	7342.17
2718.33	7339.84
2719.21	7337.26
2720.09	7334.32
2720.97	7330.47
2721.85	7324.11
2722.73	7315.72
2723.61	7306.45
2724.48	7296.92
2725.36	7288.2
2726.24	7283.29
2727.12	7278.21
2728	7271.44
2728.88	7260.77
2729.75	7247.57
2730.63	7228.31
2731.51	7207.94
2732.39	7192.42
2733.26	7179.93
2734.14	7170.96
2735.02	7166.68
2735.89	7174.16
2736.77	7194.22
2737.65	7208.64
2738.52	7215.63
2739.4	7215.4
2740.28	7207.35
2741.15	7193.2
2742.03	7174.25
2742.9	7151.07
2743.78	7131.61
2744.65	7115.54
2745.53	7127.08
2746.41	7154.33
2747.28	7166.76
2748.16	7110.96
2749.03	7079.09
2749.91	7079.94
2750.78	7090.16
2751.66	7098.8
2752.53	7100.25
2753.4	7099.77
2754.28	7096.72
2755.15	7090.58
2756.02	7081.55
2756.9	7069.01
2757.77	7054.88
2758.65	7040.27
2759.52	7029.17
2760.39	7019.3
2761.27	7010.36
2762.14	7003.31
2763.01	6997.49
2763.88	6993.86
2764.76	6990.59
2765.63	6983.81
2766.5	6975.2
2767.37	6966.48
2768.25	6957.93
2769.12	6949.37
2769.99	6940.97
2770.86	6932.87
2771.73	6925.11
2772.61	6919.23
2773.48	6899.04
2774.35	6877.47
2775.22	6864.77
2776.09	6862.87
2776.96	6879.44
2777.83	6908.67
2778.7	6880.82
2779.57	6874.7
2780.44	6864.99
2781.31	6854.69
2782.18	6844.15
2783.05	6835.96
2783.92	6830.68
2784.79	6826.9
2785.66	6824.03
2786.53	6822.14
2787.4	6820.92
2788.27	6820.89
2789.14	6820.46
2790.01	6819.03
2790.88	6817.09
2791.75	6806.33
2792.62	6795.54
2793.48	6778.62
2794.35	6771.85
2795.22	6769.13
2796.09	6768.77
2796.96	6771.47
2797.82	6767.67
2798.69	6766.66
2799.56	6764.69
2800.43	6748.05
2801.29	6728.75
2802.16	6708.15
2803.03	6697.07
2803.9	6686.49
2804.76	6683.99
2805.63	6686.54
2806.5	6687.74
2807.36	6688.06
2808.23	6687.33
2809.09	6687.82
2809.96	6681.6
2810.83	6671.52
2811.69	6654.27
2812.56	6641.94
2813.42	6629.31
2814.29	6618.31
2815.15	6608.55
2816.02	6599.46
2816.88	6591.68
2817.75	6585.85
2818.61	6581.56
2819.48	6581.36
2820.34	6581.83
2821.21	6587
2822.07	6589.67
2822.94	6580.02
2823.8	6573.44
2824.66	6559.36
2825.53	6536.11
2826.39	6525.83
2827.26	6524.09
2828.12	6524.76
2828.98	6524.54
2829.85	6524.14
2830.71	6520.35
2831.57	6516.08
2832.43	6510.49
2833.3	6504
2834.16	6496.8
2835.02	6488.93
2835.88	6480.55
2836.75	6471.4
2837.61	6461.57
2838.47	6451.04
2839.33	6440.22
2840.19	6433.67
2841.06	6433.68
2841.92	6431.54
2842.78	6431.7
2843.64	6430.43
2844.5	6427.54
2845.36	6423.97
2846.22	6420.63
2847.08	6416.41
2847.94	6411.57
2848.81	6405.82
2849.67	6399.6
2850.53	6387.36
2851.39	6364.97
2852.25	6331.32
2853.11	6318.5
2853.97	6322.24
2854.82	6339.37
2855.68	6359.5
2856.54	6363.36
2857.4	6367.46
2858.26	6367.13
2859.12	6352.45
2859.98	6339.43
2860.84	6329.17
2861.7	6321.85
2862.56	6317.33
2863.41	6314.79
2864.27	6315.33
2865.13	6309.04
2865.99	6299.17
2866.85	6287.34
2867.7	6278.44
2868.56	6271.32
2869.42	6265.14
2870.28	6261.21
2871.13	6258.34
2871.99	6255.96
2872.85	6252.83
2873.7	6249.48
2874.56	6244.34
2875.42	6239.4
2876.27	6233.74
2877.13	6227.83
2877.99	6221.91
2878.84	6217
2879.7	6222.72
2880.56	6220.57
2881.41	6216.96
2882.27	6212.54
2883.12	6198.15
2883.98	6192.62
2884.83	6185.19
2885.69	6180.21
2886.54	6174.57
2887.4	6156.89
2888.25	6136.79
2889.11	6121.4
2889.96	6107.58
2890.82	6102.25
2891.67	6099.07
2892.52	6095.22
2893.38	6093.16
2894.23	6090.7
2895.09	6087.62
2895.94	6084.13
2896.79	6080.14
2897.65	6075.63
2898.5	6070.51
2899.35	6064.65
2900.21	6057.82
2901.06	6049.31
2901.91	6031.64
2902.76	6020
2903.62	6014.84
2904.47	6011.88
2905.32	6008.72
2906.17	6005.13
2907.03	5999.04
2907.88	5995.73
2908.73	5983.38
2909.58	5976.49
2910.43	5970.98
2911.28	5967.66
2912.14	5967.74
2912.99	5963.86
2913.84	5950.08
2914.69	5939.87
2915.54	5930.55
2916.39	5920.29
2917.24	5911.56
2918.09	5910.05
2918.94	5904.27
2919.79	5897.54
2920.64	5889.1
2921.49	5880.03
2922.34	5871.23
2923.19	5863.67
2924.04	5856.9
2924.89	5850.58
2925.74	5845.21
2926.59	5840.45
2927.44	5836.45
2928.29	5833
2929.14	5829.9
2929.98	5826.91
2930.83	5822.99
2931.68	5816.78
2932.53	5808.64
2933.38	5797.51
2934.23	5785.17
2935.07	5775.74
2935.92	5763.45
2936.77	5747.44
2937.62	5742.43
2938.47	5742.23
2939.31	5739.65
2940.16	5734.37
2941.01	5731.61
2941.85	5722.1
2942.7	5715.71
2943.55	5713.47
2944.39	5716.07
2945.24	5717.32
2946.09	5718.35
2946.93	5713.05
2947.78	5703.1
2948.63	5695.82
2949.47	5687.14
2950.32	5680.51
2951.16	5674.12
2952.01	5667.93
2952.85	5662.07
2953.7	5656.23
2954.55	5650.02
2955.39	5643.59
2956.24	5636.98
2957.08	5631.25
2957.92	5626.67
2958.77	5622.54
2959.61	5617.87
2960.46	5612.54
2961.3	5606.63
2962.15	5600.2
2962.99	5593.39
2963.83	5586.26
2964.68	5578.42
2965.52	5569.99
2966.37	5561.62
2967.21	5553.3
2968.05	5548.37
2968.9	5543.85
2969.74	5544.33
2970.58	5543.62
2971.42	5545.06
2972.27	5546.32
2973.11	5544.52
2973.95	5539.15
2974.79	5528.57
2975.64	5517.9
2976.48	5507.95
2977.32	5498.49
2978.16	5492.47
2979	5490.34
2979.85	5495.32
2980.69	5499
2981.53	5501.47
2982.37	5502.17
2983.21	5502.87
2984.05	5492.04
2984.89	5480.37
2985.73	5465.75
2986.57	5454.77
2987.41	5447.42
2988.25	5442.82
2989.1	5441.73
2989.94	5441.54
2990.77	5445.61
2991.62	5451.16
2992.45	5456.24
2993.29	5458.18
2994.13	5456.74
2994.97	5451.96
2995.81	5444.81
2996.65	5434.26
2997.49	5419.43
2998.33	5400.37
2999.17	5380.58
