200.833	18487.4
202.102	18429
203.371	18413.7
204.639	18503.5
205.907	18502.5
207.175	18508.8
208.442	18503.3
209.71	18520.4
210.977	18555.4
212.244	18572.4
213.511	18583.9
214.777	18592.7
216.042	18600.4
217.309	18612.5
218.575	18626.2
219.84	18643.5
221.106	18663.7
222.371	18688.4
223.635	18717.7
224.9	18752.2
226.165	18793.3
227.429	18838.8
228.694	18887.3
229.956	18937.2
231.22	18978.5
232.484	19010.3
233.747	19057.8
235.011	19103.2
236.272	19146.2
237.535	19188.3
238.798	19223.7
240.06	19244.6
241.321	19253.8
242.583	19268.3
243.845	19277.7
245.105	19286.7
246.367	19300
247.628	19304.6
248.888	19320.7
250.149	19339
251.409	19369.5
252.67	19415.4
253.928	19435.7
255.189	19450
256.447	19459
257.707	19409.4
258.966	19455.3
260.224	19488
261.483	19512.6
262.742	19529.6
263.999	19534.9
265.257	19539.6
266.514	19545.5
267.772	19555.8
269.028	19572.6
270.286	19595.1
271.543	19623.8
272.799	19659.9
274.056	19694.9
275.311	19725.7
276.568	19752.5
277.823	19774.4
279.079	19794
280.333	19808
281.589	19813.4
282.843	19816.4
284.099	19820.7
285.352	19834.5
286.607	19859.2
287.86	19897.1
289.114	19932
290.368	19967
291.621	19999.1
292.875	20026.3
294.127	20048.3
295.38	20063.6
296.632	20067.5
297.884	20070.7
299.137	20072.8
300.388	20080.7
301.641	20088.7
302.891	20096.5
304.142	20103.9
305.394	20111.1
306.644	20116.9
307.894	20124.2
309.146	20136.1
310.395	20168.4
311.645	20211.2
312.895	20234.4
314.144	20255.3
315.393	20259
316.642	20252.7
317.892	20246.4
319.14	20244.5
320.388	20245.6
321.637	20252
322.885	20267.1
324.132	20287.6
325.38	20311.5
326.628	20338.9
327.875	20367.8
329.122	20394.8
330.368	20420.1
331.614	20443.6
332.862	20460.3
334.108	20475
335.353	20468
336.599	20471.4
337.844	20475.8
339.089	20495.9
340.335	20537.3
341.58	20565.1
342.824	20592.5
344.068	20612.5
345.312	20625.8
346.556	20624.8
347.8	20624.4
349.043	20640
350.286	20654.8
351.53	20661.8
352.774	20662
354.016	20656.2
355.259	20663.8
356.501	20670.4
357.743	20682.2
358.985	20691.9
360.227	20699.6
361.468	20705.1
362.709	20708.1
363.95	20708.7
365.191	20706.4
366.432	20701.5
367.672	20694.3
368.912	20684.9
370.152	20673.7
371.392	20661.5
372.632	20673.3
373.871	20695.6
375.11	20711.9
376.348	20729.7
377.587	20740
378.825	20749.2
380.064	20757.3
381.302	20764
382.54	20768.2
383.778	20772
385.016	20796.2
386.253	20819
387.489	20850.1
388.726	20869.1
389.963	20899.3
391.199	20925.3
392.436	20936.9
393.672	20955
394.907	20954.1
396.142	20950.7
397.378	20952.7
398.614	20956.5
399.849	20961.8
401.082	20970
402.317	20981
403.552	20994.4
404.786	21009.7
406.019	21026.8
407.253	21043
408.487	21051.8
409.721	21054.8
410.953	21055.6
412.186	21047.1
413.419	21050.6
414.651	21079.3
415.883	21104
417.116	21129.4
418.347	21148
419.579	21150.3
420.811	21154.7
422.041	21153.3
423.272	21146.9
424.504	21134.6
425.733	21123.1
426.964	21127.5
428.194	21137.9
429.424	21157.1
430.654	21166.5
431.883	21168.6
433.113	21178.8
434.341	21191.2
435.571	21205.2
436.799	21221
438.028	21238.9
439.257	21259.2
440.484	21281.8
441.713	21303.4
442.94	21320.6
444.168	21329.7
445.394	21333.7
446.622	21331.7
447.848	21323.8
449.076	21311.1
450.301	21312
451.528	21330
452.754	21338.1
453.979	21345.8
455.205	21345.7
456.43	21344.4
457.656	21347
458.88	21350.8
460.106	21353.5
461.33	21355.6
462.554	21357.2
463.779	21358.5
465.002	21359.7
466.225	21360.7
467.45	21363.7
468.672	21368.7
469.895	21374.9
471.119	21378.7
472.341	21379.4
473.563	21378.8
474.786	21365.2
476.008	21342.1
477.229	21305.1
478.452	21272.3
479.673	21262.5
480.894	21270.5
482.115	21286.1
483.337	21293.8
484.557	21303.2
485.777	21312.6
486.997	21307.3
488.218	21305.3
489.438	21262.6
490.657	21235.7
491.876	21213.1
493.096	21277
494.315	21322.7
495.533	21317
496.752	21298.1
497.97	21286.6
499.188	21278.3
500.407	21270.2
501.625	21262.4
502.842	21256.3
504.059	21251.5
505.276	21248.4
506.493	21246.8
507.71	21247.1
508.926	21248.3
510.142	21253.2
511.358	21277.1
512.575	21300.6
513.791	21323.1
515.006	21341.8
516.222	21357
517.437	21371.8
518.651	21385.3
519.866	21397.4
521.081	21408
522.295	21417.4
523.509	21425.6
524.723	21432.8
525.937	21437.8
527.15	21438.5
528.363	21437.7
529.576	21438
530.789	21439.3
532.002	21441.7
533.215	21444.8
534.426	21447.8
535.638	21451.4
536.85	21455.4
538.061	21459.9
539.273	21464.9
540.484	21470.4
541.695	21480.2
542.906	21491
544.117	21501.5
545.327	21510.7
546.537	21514.2
547.747	21515.8
548.957	21529.4
550.167	21548.4
551.377	21564.2
552.585	21565.3
553.794	21545.5
555.003	21511.8
556.212	21491.6
557.421	21481.8
558.628	21479.7
559.836	21484.4
561.044	21496.2
562.252	21511.8
563.458	21519.2
564.666	21527.1
565.873	21531.6
567.08	21534.1
568.286	21534.8
569.493	21534.2
570.699	21531.8
571.904	21528.1
573.111	21524.9
574.317	21521.7
575.521	21519.1
576.727	21519.2
577.932	21523.2
579.136	21532.1
580.341	21548.7
581.544	21564
582.749	21577.3
583.954	21586.8
585.156	21593.2
586.361	21597.8
587.563	21598.4
588.767	21595.1
589.97	21587.3
591.172	21575.5
592.375	21558.6
593.577	21535.8
594.78	21520.9
595.981	21533.3
597.183	21558
598.384	21572.1
599.586	21577.6
600.786	21578.2
601.988	21574.9
603.188	21566.7
604.389	21553.7
605.589	21535.7
606.79	21513
607.989	21485.5
609.188	21455.1
610.389	21430
611.587	21413.3
612.787	21404.2
613.986	21397.3
615.184	21397.7
616.383	21402.3
617.581	21410.3
618.78	21416.8
619.977	21391
621.174	21364.1
622.373	21308.3
623.57	21309.4
624.766	21308.4
625.964	21304.2
627.16	21297.2
628.356	21287.6
629.554	21278.6
630.749	21272.6
631.945	21265
633.14	21262.9
634.337	21262
635.532	21262.8
636.726	21258.6
637.921	21220.2
639.117	21183.9
640.311	21167.7
641.505	21164.7
642.699	21175.3
643.892	21187.9
645.087	21206.1
646.28	21218.6
647.473	21224.6
648.666	21231
649.859	21234.6
651.051	21237.7
652.245	21245.2
653.437	21249.3
654.629	21247.1
655.821	21242.1
657.012	21233.1
658.204	21225.2
659.395	21237.5
660.586	21273.6
661.777	21264.6
662.967	21264.6
664.158	21245.5
665.349	21234.7
666.539	21285.3
667.729	21330.6
668.919	21347.4
670.109	21309.8
671.298	21264.5
672.487	21251.8
673.676	21250.5
674.865	21248.3
676.053	21253.3
677.242	21267.2
678.43	21290.1
679.616	21320.9
680.804	21350.1
681.992	21349.3
683.179	21342.5
684.366	21331.2
685.554	21312.5
686.74	21284.5
687.927	21260.5
689.114	21243.7
690.3	21240.4
691.486	21249.7
692.671	21261.9
693.856	21261.7
695.042	21254.4
696.227	21242.4
697.413	21228.7
698.598	21216.2
699.781	21203.5
700.966	21189.1
702.15	21173.5
703.334	21156.2
704.518	21138.1
705.701	21117.3
706.885	21093.5
708.068	21067.3
709.252	21045.7
710.433	21046.1
711.616	21058.6
712.799	21083.7
713.98	21089.3
715.163	21054.9
716.345	21032.4
717.527	21014.7
718.707	21000.4
719.889	20996.9
721.071	21001.7
722.25	21012.2
723.432	21027.7
724.611	21046.8
725.792	21065.6
726.972	21061
728.151	21062.3
729.332	21063
730.512	21063.2
731.69	21064
732.87	21067.7
734.048	21071.3
735.227	21075.8
736.405	21080.8
737.584	21085.8
738.761	21089.3
739.94	21103.8
741.117	21126.9
742.295	21141.1
743.471	21152.9
744.649	21159.8
745.825	21161.7
747.003	21159.5
748.179	21151.3
749.356	21139.3
750.531	21123.7
751.708	21106.8
752.883	21113
754.059	21110.4
755.234	21106.2
756.409	21102.5
757.585	21099.4
758.759	21099.8
759.934	21100.7
761.108	21102.5
762.282	21104.8
763.456	21108.1
764.63	21111.1
765.803	21109.6
766.977	21102.3
768.15	21084.2
769.323	21069.2
770.496	21054.2
771.668	21036.6
772.841	21018
774.014	21001.3
775.185	20995.5
776.357	20994.1
777.528	20995
778.701	20983.4
779.872	20967.1
781.042	20948.1
782.213	20931.6
783.383	20914.7
784.555	20899.8
785.725	20892.9
786.895	20886.1
788.064	20881.2
789.234	20869.5
790.404	20856.7
791.573	20835.1
792.742	20810.3
793.911	20780
795.08	20760.4
796.248	20755.2
797.416	20759.5
798.584	20756.6
799.753	20755.1
800.921	20754.7
802.088	20754.8
803.256	20755.1
804.423	20755.6
805.59	20756.1
806.756	20756
807.923	20754.2
809.089	20747.8
810.256	20742.9
811.422	20746.2
812.587	20757.7
813.753	20764.6
814.918	20763.7
816.084	20764.9
817.249	20767
818.414	20770
819.578	20773.7
820.743	20778.5
821.907	20784.4
823.072	20795.6
824.236	20804.8
825.399	20815.1
826.562	20817.2
827.725	20817.8
828.889	20820.7
830.052	20825.5
831.215	20832.8
832.377	20844.1
833.54	20861.8
834.701	20885.2
835.863	20891.6
837.025	20889.9
838.187	20877.9
839.349	20860.5
840.51	20837.5
841.67	20810.1
842.831	20798.6
843.992	20803.2
845.153	20813.7
846.312	20822.8
847.473	20820.9
848.633	20812.6
849.793	20801.2
850.951	20781.3
852.111	20764.9
853.27	20751.8
854.428	20740.5
855.588	20730.2
856.747	20720.9
857.904	20712.3
859.063	20704.7
860.221	20696.9
861.378	20685.7
862.536	20672.7
863.694	20657.5
864.85	20641
866.008	20621.7
867.164	20600.9
868.321	20579
869.478	20556.9
870.633	20541.6
871.79	20529.5
872.945	20522.4
874.101	20516.2
875.256	20508.6
876.412	20495.4
877.566	20459.7
878.722	20433.7
879.876	20404.1
881.031	20382.2
882.185	20364
883.34	20348.4
884.493	20331.6
885.647	20313
886.8	20297.1
887.954	20284.2
889.107	20275.1
890.261	20268.6
891.413	20267.8
892.565	20272.9
893.718	20282.9
894.87	20290.6
896.023	20297.8
897.174	20302.2
898.326	20298.1
899.478	20292.9
900.629	20287.4
901.779	20286.7
902.931	20288
904.081	20291.7
905.231	20295.4
906.383	20299.6
907.532	20305.2
908.682	20312
909.831	20320.8
910.982	20329.4
912.131	20333.2
913.28	20329.9
914.429	20321.1
915.578	20317.5
916.727	20315.6
917.875	20315.9
919.023	20317.9
920.171	20321.9
921.32	20327.3
922.467	20334.2
923.614	20342.2
924.761	20350.4
925.908	20358.4
927.055	20362.6
928.203	20363.9
929.349	20362.6
930.496	20359.6
931.642	20354.7
932.787	20351.5
933.933	20359.3
935.079	20335.2
936.224	20310.2
937.369	20285
938.514	20267.9
939.659	20258.3
940.804	20256.4
941.948	20261.3
943.092	20265.5
944.236	20269.9
945.38	20280
946.524	20290
947.667	20293.6
948.811	20287.2
949.954	20251.2
951.097	20173.4
952.24	20041.5
953.383	20143.8
954.525	20169.7
955.667	20146.1
956.81	20102.4
957.952	20061.3
959.093	20039.4
960.235	20034
961.376	20038.5
962.516	20038.6
963.658	20034.9
964.798	20028.5
965.939	20021.3
967.08	20014.3
968.22	20008.5
969.359	20003.1
970.499	20007.4
971.639	20008.6
972.779	20007.1
973.918	20006.5
975.056	19997.4
976.195	19993.4
977.334	19990.4
978.473	19988.8
979.61	19988.9
980.749	19975.3
981.887	19961.2
983.024	19949.8
984.162	19942.8
985.3	19939.7
986.437	19940.2
987.573	19944.3
988.711	19951.8
989.848	19962.4
990.983	19974.4
992.12	19979.9
993.255	19983
994.392	19985.7
995.528	19988.8
996.662	19998.4
997.798	20007.2
998.933	20015.4
1000.07	20018.3
1001.2	20024.1
1002.34	20018
1003.47	19990.5
1004.61	19977
1005.74	19986.6
1006.87	20015.7
1008.01	20040.8
1009.14	20039.6
1010.27	20011.5
1011.41	19987.3
1012.54	19967.3
1013.67	19954.1
1014.81	19946.3
1015.94	19943.2
1017.07	19942.3
1018.2	19934.5
1019.33	19931.9
1020.47	19928.7
1021.6	19926.5
1022.73	19923.9
1023.86	19920.1
1024.99	19912.8
1026.12	19896.3
1027.25	19880.9
1028.38	19865.9
1029.51	19852.2
1030.64	19838.9
1031.77	19817.5
1032.9	19793.5
1034.03	19767.6
1035.16	19738.1
1036.29	19727.4
1037.42	19723.3
1038.55	19714.7
1039.67	19704.9
1040.8	19694.1
1041.93	19681.8
1043.06	19670.7
1044.19	19658.1
1045.31	19644.6
1046.44	19625.4
1047.57	19589.8
1048.69	19568.6
1049.82	19548.5
1050.95	19528.3
1052.08	19510.8
1053.2	19495.8
1054.33	19484
1055.45	19476.5
1056.58	19473.7
1057.7	19487.9
1058.83	19478.9
1059.95	19470.4
1061.08	19454.2
1062.2	19444.9
1063.33	19438.2
1064.45	19440.9
1065.58	19450.1
1066.7	19468.3
1067.83	19468.3
1068.95	19462.2
1070.07	19455.9
1071.2	19449.5
1072.32	19443.1
1073.44	19438.2
1074.56	19432.9
1075.69	19428.2
1076.81	19423.4
1077.93	19418.4
1079.05	19412.9
1080.17	19404.3
1081.3	19395.2
1082.42	19386
1083.54	19376.4
1084.66	19366.2
1085.78	19355.9
1086.9	19345.3
1088.02	19337
1089.14	19343.1
1090.26	19361
1091.38	19395.8
1092.5	19411.2
1093.62	19428.8
1094.74	19441.7
1095.86	19428.9
1096.98	19420.6
1098.1	19410.4
1099.22	19404.6
1100.34	19404.5
1101.45	19407.1
1102.57	19405.8
1103.69	19404
1104.81	19400.7
1105.93	19396.4
1107.04	19379.1
1108.16	19363
1109.28	19343.7
1110.4	19324.8
1111.51	19306
1112.63	19286.1
1113.75	19264.5
1114.86	19242.1
1115.98	19218.7
1117.09	19195.2
1118.21	19169.9
1119.32	19160.6
1120.44	19158.4
1121.55	19164.9
1122.67	19175.8
1123.78	19170.3
1124.9	19155.8
1126.01	19137.6
1127.13	19117.2
1128.24	19093.2
1129.35	19068.3
1130.47	19043.8
1131.58	19019.1
1132.7	18994.1
1133.81	18969.2
1134.92	18944.1
1136.03	18919
1137.15	18893.4
1138.26	18876.5
1139.37	18880.7
1140.48	18878.3
1141.59	18875.8
1142.71	18926.1
1143.82	18837.2
1144.93	18798.2
1146.04	18796.2
1147.15	18788.4
1148.26	18775
1149.37	18772.1
1150.48	18755.6
1151.59	18737.5
1152.7	18717.4
1153.81	18694.4
1154.92	18670.6
1156.03	18648.1
1157.14	18637.8
1158.25	18628.3
1159.36	18623.2
1160.47	18622.1
1161.58	18625.4
1162.68	18632.9
1163.79	18645.7
1164.9	18659.6
1166.01	18661.6
1167.12	18657.6
1168.22	18643.4
1169.33	18625.6
1170.44	18616.1
1171.55	18611.5
1172.65	18613.3
1173.76	18621.4
1174.87	18633.4
1175.97	18653.3
1177.08	18654.9
1178.18	18648.6
1179.29	18635.3
1180.4	18630.9
1181.5	18627.8
1182.61	18624.9
1183.71	18622.3
1184.82	18621.2
1185.92	18621
1187.02	18622.8
1188.13	18623.8
1189.23	18629.5
1190.34	18635
1191.44	18649.3
1192.54	18656.4
1193.65	18658.9
1194.75	18646.5
1195.85	18612.4
1196.96	18610.5
1198.06	18616.2
1199.16	18625.9
1200.26	18644.1
1201.37	18669.6
1202.47	18687.9
1203.57	18694.3
1204.67	18688.5
1205.77	18670.2
1206.87	18656
1207.97	18639.8
1209.08	18622.9
1210.18	18605
1211.28	18585.1
1212.38	18558.7
1213.48	18553.3
1214.58	18560
1215.68	18570.2
1216.78	18582.2
1217.88	18589.3
1218.98	18585.6
1220.07	18577.6
1221.17	18564.1
1222.27	18545.3
1223.37	18528.2
1224.47	18514.4
1225.57	18503.1
1226.66	18494.3
1227.76	18487.4
1228.86	18481.7
1229.96	18476.8
1231.06	18472.6
1232.15	18465.3
1233.25	18456.9
1234.35	18449.1
1235.44	18435.9
1236.54	18415.2
1237.63	18375
1238.73	18335
1239.83	18299.4
1240.92	18272.6
1242.02	18269.7
1243.11	18266.7
1244.21	18265.8
1245.3	18265.4
1246.4	18263.4
1247.49	18260.8
1248.59	18252.6
1249.68	18243.8
1250.78	18233.8
1251.87	18222.9
1252.96	18211.4
1254.06	18198.4
1255.15	18188.3
1256.24	18186.5
1257.34	18196.2
1258.43	18199.7
1259.52	18197.4
1260.62	18189
1261.71	18179.6
1262.8	18168.9
1263.89	18158.7
1264.98	18149.6
1266.08	18144.4
1267.17	18147.8
1268.26	18156.7
1269.35	18168.5
1270.44	18179.5
1271.53	18188.2
1272.62	18192.2
1273.71	18189.9
1274.8	18183.2
1275.89	18172.6
1276.98	18157.5
1278.07	18138.2
1279.16	18115.4
1280.25	18090.4
1281.34	18076.7
1282.43	18074
1283.52	18082.5
1284.61	18100.2
1285.69	18124.9
1286.78	18156.4
1287.87	18159.9
1288.96	18135.7
1290.05	18130.4
1291.13	18128.4
1292.22	18127.3
1293.31	18125
1294.4	18127.5
1295.48	18130.3
1296.57	18134.1
1297.66	18137.9
1298.74	18141.2
1299.83	18143.7
1300.92	18143.3
1302	18142.5
1303.09	18140.8
1304.17	18138.5
1305.26	18136.3
1306.34	18134.1
1307.43	18131.8
1308.51	18130.1
1309.6	18129.8
1310.68	18159.3
1311.76	18167.9
1312.85	18151
1313.93	18129.1
1315.02	18097.9
1316.1	18073.4
1317.18	18052.6
1318.27	18034.3
1319.35	18027
1320.43	18029.3
1321.52	18037.4
1322.6	18046.7
1323.68	18058
1324.76	18055.8
1325.85	18042.6
1326.93	18027.7
1328.01	18009.1
1329.09	17987.5
1330.17	17965.1
1331.25	17948.9
1332.33	17934.1
1333.41	17924.8
1334.49	17923.5
1335.58	17923.5
1336.65	17924.5
1337.74	17921.7
1338.82	17917.8
1339.89	17912.7
1340.97	17904.8
1342.05	17895.4
1343.13	17885.2
1344.21	17873.7
1345.29	17867.4
1346.37	17864.8
1347.45	17856.2
1348.53	17843.9
1349.6	17829.5
1350.68	17815.2
1351.76	17799.7
1352.84	17788.9
1353.92	17786.9
1354.99	17789.4
1356.07	17801.7
1357.15	17820.8
1358.22	17801
1359.3	17778.3
1360.38	17759.3
1361.45	17771.3
1362.53	17781.2
1363.61	17792
1364.68	17806.3
1365.76	17815.3
1366.83	17821.2
1367.91	17824.5
1368.98	17824.4
1370.06	17815.9
1371.13	17809.6
1372.21	17801.6
1373.28	17791
1374.35	17778.7
1375.43	17770.8
1376.5	17783.3
1377.58	17796.5
1378.65	17799
1379.72	17772.2
1380.8	17740
1381.87	17719.5
1382.94	17698
1384.01	17710.9
1385.09	17721.9
1386.16	17725.9
1387.23	17725.8
1388.3	17721.9
1389.38	17716.3
1390.45	17705.8
1391.52	17692.1
1392.59	17674.6
1393.66	17665.8
1393.92	17662.7
1395	17673.4
1396.07	17676.9
1397.15	17672.4
1398.22	17661.3
1399.3	17649.4
1400.38	17632.3
1401.45	17619.8
1402.53	17611.1
1403.6	17605.1
1404.68	17600.7
1405.75	17597.5
1406.82	17589.2
1407.9	17585.7
1408.97	17581.4
1410.05	17578.6
1411.12	17574.4
1412.19	17567.5
1413.27	17554.8
1414.34	17532.8
1415.41	17513
1416.49	17515.6
1417.56	17523.9
1418.63	17547.3
1419.7	17551.5
1420.78	17562
1421.85	17544.4
1422.92	17520.9
1423.99	17490.3
1425.06	17454.9
1426.14	17439.9
1427.21	17442.2
1428.28	17441.3
1429.35	17438.7
1430.42	17435.3
1431.49	17430.7
1432.56	17411.8
1433.63	17391.5
1434.7	17372.1
1435.77	17351.6
1436.84	17350
1437.91	17361.5
1438.98	17370.7
1440.05	17384.7
1441.12	17407.5
1442.18	17426.7
1443.25	17421.1
1444.32	17403.8
1445.39	17374.3
1446.46	17349.3
1447.53	17332.9
1448.59	17320
1449.66	17310.5
1450.73	17305
1451.8	17304.5
1452.86	17307.6
1453.93	17314.5
1455	17323.3
1456.06	17326.8
1457.13	17326.6
1458.2	17317.9
1459.26	17297.4
1460.33	17282.7
1461.39	17269.5
1462.46	17266.3
1463.52	17261.6
1464.59	17262.2
1465.65	17274.9
1466.72	17282.6
1467.78	17284.8
1468.85	17283.7
1469.91	17281.8
1470.98	17278.9
1472.04	17275.1
1473.1	17270
1474.17	17264.4
1475.23	17258.8
1476.3	17253.7
1477.36	17248.7
1478.42	17241.7
1479.48	17234.8
1480.55	17228.3
1481.61	17224.8
1482.67	17241
1483.73	17246.3
1484.8	17251.5
1485.86	17225.4
1486.92	17191.7
1487.98	17192.5
1489.04	17192.9
1490.1	17188
1491.17	17176.2
1492.23	17158
1493.29	17143.6
1494.35	17127.1
1495.41	17117.3
1496.47	17118.2
1497.53	17122.9
1498.59	17130
1499.65	17133.7
1500.71	17140.1
1501.77	17131.1
1502.83	17096.4
1503.88	17087.8
1504.94	17083.8
1506	17088.2
1507.06	17088.5
1508.12	17067.4
1509.18	17039.5
1510.23	17009.7
1511.29	16998.8
1512.35	16988.8
1513.41	16978.6
1514.47	16986.6
1515.52	16988.2
1516.58	16981.6
1517.64	16967.1
1518.69	16943.6
1519.75	16922.9
1520.81	16910.5
1521.86	16914.3
1522.92	16913.5
1523.97	16908.6
1525.03	16902.9
1526.08	16896.7
1527.14	16891.8
1528.2	16886.8
1529.25	16881.5
1530.31	16875.7
1531.36	16869
1532.42	16862.4
1533.47	16851.7
1534.52	16840.1
1535.58	16828.7
1536.63	16830.8
1537.69	16844.3
1538.74	16852.1
1539.79	16852.8
1540.84	16793.4
1541.9	16761.2
1542.95	16747.3
1544	16736.5
1545.06	16731.8
1546.11	16733.1
1547.16	16741.2
1548.21	16755
1549.27	16758.2
1550.32	16743.5
1551.37	16730.6
1552.42	16723.3
1553.47	16716.6
1554.52	16712.2
1555.57	16712.1
1556.62	16715
1557.67	16718
1558.72	16720.9
1559.77	16722.4
1560.82	16712.2
1561.87	16702.8
1562.92	16690.8
1563.97	16674.8
1565.02	16656.1
1566.07	16635.5
1567.12	16618
1568.17	16627.7
1569.22	16654.2
1570.27	16673.1
1571.32	16686.9
1572.36	16696.4
1573.41	16686.4
1574.46	16664.9
1575.51	16653.6
1576.56	16641.6
1577.6	16641.5
1578.65	16641.9
1579.7	16654.2
1580.74	16659.1
1581.79	16664.4
1582.84	16660.3
1583.88	16650
1584.93	16638
1585.98	16622.8
1587.02	16604.9
1588.07	16585.2
1589.11	16567
1590.16	16554.7
1591.2	16534.7
1592.25	16531.1
1593.29	16525.5
1594.34	16607.3
1595.38	16568.8
1596.43	16525.7
1597.47	16486.4
1598.52	16476.7
1599.56	16463.5
1600.6	16456.3
1601.65	16446
1602.69	16436.6
1603.73	16428.9
1604.78	16421.8
1605.82	16416.3
1606.86	16411.7
1607.91	16407.7
1608.95	16404
1609.99	16388.6
1611.03	16371.9
1612.08	16350.2
1613.12	16324.3
1614.16	16294.4
1615.2	16260.2
1616.24	16282.7
1617.28	16332.4
1618.32	16304.3
1619.36	16269.3
1620.41	16203
1621.45	16181.8
1622.49	16173.5
1623.53	16162.1
1624.57	16153.7
1625.61	16151.4
1626.65	16150.5
1627.69	16149.7
1628.73	16149.5
1629.76	16148.1
1630.8	16145.3
1631.84	16133.9
1632.88	16123
1633.92	16111.4
1634.96	16098.5
1636	16087.3
1637.03	16067.7
1638.07	16047.3
1639.11	16021.3
1640.15	16018
1641.19	16032.1
1642.22	16028.6
1643.26	16015.6
1644.3	15997.2
1645.33	15983.3
1646.37	15971.8
1647.41	15963.9
1648.44	15958.1
1649.48	15954.5
1650.52	15951.6
1651.55	15948.7
1652.59	15945.6
1653.62	15935.7
1654.66	15926.9
1655.69	15917.4
1656.73	15905.6
1657.76	15893.1
1658.8	15883.4
1659.83	15875.7
1660.87	15871.4
1661.9	15876.5
1662.93	15876.2
1663.97	15870.3
1665	15864.2
1666.04	15857.2
1667.07	15848.8
1668.1	15839
1669.14	15828.5
1670.17	15818.3
1671.2	15814.4
1672.23	15805.3
1673.27	15793.8
1674.3	15776.6
1675.33	15761.5
1676.36	15743.1
1677.39	15734.7
1678.43	15739.6
1679.46	15745.8
1680.49	15751.6
1681.52	15755.9
1682.55	15758.2
1683.58	15757
1684.61	15739.5
1685.64	15724.4
1686.67	15714.8
1687.7	15713.7
1688.73	15719.8
1689.76	15711.9
1690.79	15701.5
1691.82	15689.8
1692.85	15673.4
1693.88	15659.4
1694.91	15650.1
1695.94	15644.7
1696.97	15643.4
1698	15646
1699.02	15652.9
1700.05	15642.5
1701.08	15628.7
1702.11	15610.8
1703.14	15588.1
1704.16	15574.3
1705.19	15569
1706.22	15573.7
1707.25	15568.9
1708.27	15565.2
1709.3	15562.2
1710.33	15542.4
1711.35	15517
1712.38	15500.8
1713.41	15495.1
1714.43	15489.8
1715.46	15478.1
1716.48	15464.9
1717.51	15450.9
1718.53	15436.1
1719.56	15420.5
1720.58	15404
1721.61	15386.8
1722.63	15369.8
1723.66	15355.4
1724.68	15344.1
1725.71	15343
1726.73	15350.4
1727.75	15351.9
1728.78	15347.7
1729.8	15336.9
1730.83	15323.9
1731.85	15304
1732.87	15280.3
1733.89	15253.9
1734.92	15225
1735.94	15215.1
1736.96	15216.4
1737.98	15212.8
1739.01	15217.6
1740.03	15221.6
1741.05	15221
1742.07	15204.8
1743.09	15183.1
1744.12	15152.9
1745.14	15112.2
1746.16	15091.8
1747.18	15083.5
1748.2	15082.8
1749.22	15080
1750.24	15078.5
1751.26	15078.4
1752.28	15077.5
1753.3	15076
1754.32	15075.1
1755.34	15073.7
1756.36	15072.1
1757.38	15068.5
1758.4	15058.9
1759.42	15045.2
1760.44	15033
1761.45	15031.7
1762.47	15031.5
1763.49	15034.6
1764.51	15035.3
1765.53	15031.7
1766.55	15024.8
1767.56	15015.6
1768.58	15003.4
1769.6	14989.2
1770.61	14972
1771.63	14952.4
1772.65	14930.2
1773.67	14907.1
1774.68	14890.5
1775.7	14880
1776.72	14887.6
1777.73	14902.5
1778.75	14900.6
1779.76	14878.9
1780.78	14846.4
1781.79	14827.1
1782.81	14811.6
1783.83	14798.6
1784.84	14791
1785.85	14789.5
1786.87	14790.7
1787.88	14793.5
1788.9	14793.2
1789.91	14770.2
1790.93	14765.2
1791.94	14764.6
1792.95	14761.2
1793.97	14755.7
1794.98	14749.9
1796	14743.1
1797.01	14735.6
1798.02	14726.9
1799.03	14716.9
1800.05	14705
1801.06	14673.5
1802.07	14677.8
1803.08	14666.5
1804.1	14654.3
1805.11	14643.8
1806.12	14633.6
1807.13	14623.1
1808.14	14611.4
1809.15	14598.4
1810.17	14583.3
1811.18	14565.6
1812.19	14545.3
1813.2	14522.8
1814.21	14504.4
1815.22	14487.7
1816.23	14474.9
1817.24	14465.8
1818.25	14456.8
1819.26	14448.6
1820.27	14439.8
1821.28	14433.5
1822.29	14429.9
1823.3	14427.3
1824.3	14425.3
1825.31	14422
1826.32	14409.1
1827.33	14373
1828.34	14333.3
1829.35	14303.6
1830.35	14282.2
1831.36	14269.9
1832.37	14264.6
1833.38	14266.9
1834.38	14269.2
1835.39	14266.7
1836.4	14263.6
1837.41	14247.3
1838.41	14217.8
1839.42	14190.4
1840.43	14168.9
1841.43	14154.7
1842.44	14194
1843.44	14182.1
1844.45	14175.7
1845.46	14120.9
1846.46	14096.1
1847.47	14085.7
1848.47	14082.6
1849.48	14086.4
1850.48	14097.6
1851.49	14103.1
1852.49	14104.5
1853.49	14079.8
1854.5	14060.2
1855.5	14044.3
1856.51	14024.7
1857.51	14019.6
1858.51	14015
1859.52	14017.9
1860.52	14025.3
1861.52	14032.2
1862.53	14029.9
1863.53	14018.3
1864.53	14001.8
1865.54	13976.5
1866.54	13955.7
1867.54	13937.3
1868.54	13925.6
1869.54	13913.4
1870.55	13903.5
1871.55	13892.7
1872.55	13882.3
1873.55	13872.5
1874.55	13863.2
1875.55	13854.6
1876.55	13846.5
1877.55	13839.4
1878.55	13833.9
1879.55	13827.9
1880.56	13821.7
1881.55	13815.1
1882.56	13807.9
1883.55	13799.7
1884.55	13785.1
1885.55	13734.6
1886.55	13624
1887.55	13746.4
1888.55	13736.7
1889.55	13723.4
1890.55	13718
1891.55	13704.2
1892.55	13693.5
1893.54	13681.3
1894.54	13667.4
1895.54	13652.6
1896.54	13636.2
1897.54	13618.6
1898.53	13600
1899.53	13581.6
1900.53	13583.1
1901.52	13579
1902.52	13584.6
1903.52	13572.9
1904.51	13562.3
1905.51	13545.4
1906.51	13531.4
1907.5	13523.4
1908.5	13519.6
1909.49	13520.1
1910.49	13521.4
1911.49	13499.8
1912.48	13475.4
1913.48	13445.3
1914.47	13410.1
1915.46	13384.9
1916.46	13376.7
1917.45	13369.9
1918.45	13368.5
1919.44	13366.5
1920.44	13362.3
1921.43	13357
1922.43	13351.5
1923.42	13344.6
1924.41	13337.7
1925.41	13331.8
1926.4	13327.1
1927.39	13324.5
1928.38	13321.2
1929.38	13311.6
1930.37	13289.4
1931.36	13249.6
1932.35	13208.6
1933.35	13178.3
1934.34	13172.1
1935.33	13178.5
1936.32	13194.5
1937.31	13183.1
1938.3	13172.7
1939.29	13163.4
1940.29	13149.6
1941.28	13132.4
1942.27	13112.8
1943.26	13100.9
1944.25	13098.7
1945.24	13093.7
1946.23	13086.2
1947.22	13075.7
1948.21	13061.8
1949.2	13045.1
1950.19	13025.3
1951.18	13002.2
1952.17	12979.9
1953.16	12960.9
1954.14	12949.3
1955.13	12934.7
1956.12	12922.2
1957.11	12910.4
1958.1	12896.8
1959.09	12883.4
1960.07	12861.7
1961.06	12845.8
1962.05	12833.9
1963.04	12828.9
1964.02	12843.7
1965.01	12851.4
1966	12855.6
1966.99	12850.2
1967.97	12843.9
1968.96	12835.6
1969.95	12821.9
1970.93	12814.2
1971.92	12806.4
1972.9	12797.7
1973.89	12788.6
1974.88	12777.3
1975.86	12760.2
1976.85	12733.5
1977.83	12718.4
1978.82	12708
1979.8	12697.9
1980.79	12688.5
1981.77	12680.1
1982.76	12672.7
1983.74	12666.2
1984.72	12658.6
1985.71	12649.1
1986.69	12636.3
1987.67	12622.3
1988.66	12607.5
1989.64	12593.9
1990.62	12581
1991.61	12569
1992.59	12565.2
1993.57	12561.8
1994.56	12558.8
1995.54	12556.7
1996.52	12539.1
1997.5	12522.2
1998.49	12506.8
1999.47	12492.8
2000.45	12480
2001.43	12469.6
2002.41	12464.8
2003.39	12463.3
2004.38	12465.6
2005.36	12469.3
2006.34	12471.6
2007.32	12464.2
2008.3	12459.6
2009.28	12451
2010.26	12428.8
2011.24	12402
2012.22	12367.7
2013.2	12346
2014.18	12320
2015.16	12293.6
2016.14	12274.7
2017.12	12264
2018.1	12280.2
2019.07	12298.1
2020.05	12293.4
2021.03	12277.4
2022.01	12222.5
2022.99	12184.5
2023.97	12186.3
2024.95	12188.4
2025.92	12193.3
2026.9	12201.1
2027.88	12214.3
2028.86	12222.1
2029.83	12200.1
2030.81	12188.1
2031.79	12161.8
2032.76	12132.9
2033.74	12110.6
2034.72	12098.7
2035.69	12082.6
2036.67	12079
2037.65	12076.3
2038.62	12061.5
2039.6	12048.6
2040.57	12035.6
2041.55	12009.4
2042.52	11989.2
2043.5	11971.7
2044.47	11966.2
2045.45	11959.6
2046.42	11958.5
2047.4	11957.1
2048.37	11953.2
2049.35	11945.3
2050.32	11934.7
2051.29	11920.4
2052.27	11903.6
2053.24	11880.5
2054.21	11855.1
2055.19	11827.5
2056.16	11800.4
2057.13	11805.3
2058.11	11817.4
2059.08	11817
2060.05	11814.2
2061.02	11810.3
2062	11800.7
2062.97	11789.8
2063.94	11777.2
2064.91	11763.3
2065.89	11747.2
2066.86	11732.9
2067.83	11720.6
2068.8	11709.5
2069.77	11700.4
2070.74	11689.6
2071.71	11679.3
2072.68	11668.8
2073.65	11659.6
2074.62	11650.4
2075.59	11640.5
2076.56	11628.3
2077.53	11601.6
2078.5	11574.1
2079.47	11542.5
2080.44	11519
2081.41	11507.6
2082.38	11499
2083.35	11505.8
2084.32	11518.3
2085.29	11513.7
2086.26	11491.5
2087.23	11468.9
2088.19	11440.5
2089.16	11423.4
2090.13	11418
2091.1	11417.1
2092.07	11419.7
2093.03	11416.7
2094	11413.2
2094.97	11402
2095.94	11389.1
2096.9	11375
2097.87	11359.8
2098.84	11343.8
2099.8	11327.3
2100.77	11310.9
2101.74	11297
2102.7	11283.9
2103.67	11277.3
2104.63	11275.6
2105.6	11268.7
2106.56	11260.2
2107.53	11249.6
2108.49	11236.4
2109.46	11235.7
2110.42	11230.6
2111.39	11226.6
2112.35	11215
2113.32	11201.4
2114.28	11179
2115.25	11157.1
2116.21	11136.8
2117.17	11118.4
2118.14	11102.6
2119.1	11095.5
2120.07	11096.5
2121.03	11102.4
2121.99	11107.3
2122.96	11103.3
2123.92	11090.1
2124.88	11068.2
2125.84	11038
2126.81	11028.4
2127.77	11021.4
2128.73	11023.2
2129.69	11021.5
2130.65	11006.8
2131.62	10985.3
2132.58	10964.9
2133.54	10941.5
2134.5	10917.7
2135.46	10905.6
2136.42	10911.3
2137.38	10920
2138.34	10923
2139.3	10920.9
2140.26	10916.2
2141.22	10907
2142.18	10893.4
2143.14	10876.2
2144.1	10855.3
2145.06	10832
2146.02	10812
2146.98	10799.5
2147.94	10785
2148.9	10773.8
2149.86	10765.2
2150.82	10761.1
2151.78	10771.6
2152.74	10764.2
2153.69	10750.5
2154.65	10726.5
2155.61	10698.4
2156.57	10675.8
2157.53	10683.3
2158.48	10720.9
2159.44	10644.8
2160.4	10630.6
2161.36	10634.9
2162.31	10625.7
2163.27	10609.2
2164.23	10598
2165.18	10582.6
2166.14	10568.8
2167.1	10556.8
2168.05	10537.4
2169.01	10536.4
2169.96	10542.3
2170.92	10549.1
2171.88	10551.2
2172.83	10493.8
2173.79	10457.1
2174.74	10415.4
2175.7	10381.9
2176.65	10386.2
2177.6	10368.3
2178.56	10346.7
2179.51	10330.6
2180.47	10316.9
2181.42	10304.9
2182.38	10294.2
2183.33	10285
2184.28	10277.7
2185.24	10272.5
2186.19	10266.8
2187.14	10260.4
2188.1	10243.1
2189.05	10222.4
2190	10197.4
2190.96	10178
2191.91	10161
2192.86	10146.5
2193.81	10134.9
2194.76	10126.4
2195.72	10120.9
2196.67	10118.5
2197.62	10119.2
2198.57	10123
2199.52	10130
2200.47	10122
2201.43	10089.7
2202.38	10069.7
2203.33	10050.7
2204.28	10033.6
2205.23	10025.2
2206.18	10029.6
2207.13	10022.2
2208.08	10016
2209.03	10009.3
2209.98	9998.34
2210.93	9983.98
2211.88	9966.83
2212.83	9952.59
2213.78	9945.15
2214.73	9947.35
2215.67	9943.83
2216.62	9936.75
2217.57	9924.04
2218.52	9910.25
2219.47	9894.76
2220.42	9875.15
2221.37	9856.1
2222.31	9850.45
2223.26	9848.82
2224.21	9850.06
2225.16	9852.83
2226.1	9856.58
2227.05	9856.53
2228	9843.09
2228.94	9828.27
2229.89	9807.62
2230.84	9795.72
2231.78	9788.53
2232.73	9785.88
2233.68	9787.49
2234.62	9782.48
2235.57	9776.79
2236.51	9770.06
2237.46	9762.72
2238.41	9754.36
2239.35	9746.78
2240.3	9744.71
2241.24	9744.17
2242.19	9734.71
2243.13	9725
2244.07	9707.07
2245.02	9694.8
2245.96	9695.8
2246.91	9702.05
2247.85	9704.39
2248.8	9707.06
2249.74	9708.15
2250.68	9706.92
2251.63	9696.28
2252.57	9684.84
2253.51	9675.72
2254.46	9668.62
2255.4	9667.29
2256.34	9672.25
2257.28	9666.16
2258.23	9662.79
2259.17	9656.71
2260.11	9651.34
2261.05	9642.97
2262	9634.82
2262.94	9625.58
2263.88	9616.71
2264.82	9608.16
2265.76	9601.13
2266.7	9594.75
2267.64	9588.99
2268.58	9589.12
2269.53	9597.44
2270.47	9595.94
2271.41	9590.58
2272.35	9583.2
2273.29	9579.29
2274.23	9576.45
2275.17	9572.43
2276.11	9564.02
2277.05	9553.05
2277.99	9537.78
2278.93	9530.23
2279.86	9523.67
2280.8	9514.92
2281.74	9508.51
2282.68	9507.21
2283.62	9507.32
2284.56	9506.37
2285.5	9502.98
2286.44	9501.12
2287.37	9499.1
2288.31	9497.26
2289.25	9494.45
2290.19	9489.01
2291.12	9483.95
2292.06	9479.48
2293	9475.79
2293.94	9472.73
2294.87	9470.44
2295.81	9468.79
2296.75	9467.85
2297.68	9467.45
2298.62	9467.36
2299.55	9466.34
2300.49	9464.03
2301.43	9458.07
2302.36	9446.31
2303.3	9427.25
2304.23	9411.99
2305.17	9402.77
2306.1	9395.25
2307.04	9387.6
2307.98	9379.54
2308.91	9372.09
2309.84	9364.34
2310.78	9355.82
2311.71	9347.28
2312.65	9338.39
2313.58	9329.46
2314.52	9320.33
2315.45	9310.7
2316.38	9298.04
2317.32	9274.28
2317.72	9260.38
2318.66	9235.71
2319.6	9213.74
2320.54	9229.8
2321.48	9233.89
2322.41	9241.36
2323.35	9249.26
2324.29	9255.9
2325.23	9255.29
2326.16	9251.41
2327.1	9241.51
2328.04	9225.96
2328.97	9205.78
2329.91	9181.19
2330.85	9156.34
2331.78	9142.34
2332.72	9132.76
2333.66	9126.45
2334.59	9125.7
2335.53	9126.4
2336.46	9126.27
2337.4	9126.98
2338.33	9127.75
2339.27	9127.44
2340.2	9124.67
2341.14	9119.5
2342.07	9111.04
2343.01	9101.19
2343.94	9090.63
2344.88	9077.82
2345.81	9064.75
2346.75	9054.39
2347.68	9045.83
2348.61	9039.67
2349.55	9033.95
2350.48	9026.49
2351.41	9019.27
2352.35	9012.15
2353.28	9005.07
2354.21	8996.83
2355.15	8989.76
2356.08	8984.71
2357.01	8980.13
2357.94	8975.5
2358.88	8968.54
2359.81	8961.18
2360.74	8952.88
2361.67	8944.06
2362.6	8934.54
2363.54	8923.48
2364.47	8911
2365.4	8897.07
2366.33	8883.16
2367.26	8882.04
2368.19	8886.02
2369.12	8891.71
2370.05	8892.93
2370.98	8890.92
2371.91	8884.27
2372.84	8872.93
2373.77	8865.01
2374.7	8858.45
2375.63	8852.64
2376.56	8848.08
2377.49	8844.72
2378.42	8842.76
2379.35	8842.66
2380.28	8843.5
2381.21	8844.2
2382.14	8840.29
2383.07	8831.51
2384	8819.72
2384.92	8802.14
2385.85	8788.02
2386.78	8781.04
2387.71	8777.46
2388.64	8773.16
2389.56	8771.89
2390.49	8769.7
2391.42	8768.64
2392.35	8767.4
2393.27	8764.64
2394.2	8760.43
2395.13	8755.69
2396.05	8750.07
2396.98	8743.52
2397.91	8736.1
2398.83	8727.29
2399.76	8712.96
2400.69	8700.33
2401.61	8690.29
2402.54	8682.47
2403.46	8677.02
2404.39	8675.08
2405.31	8675.23
2406.24	8677.97
2407.17	8678.86
2408.09	8669.43
2409.01	8653.32
2409.94	8642.3
2410.86	8630.02
2411.79	8620
2412.71	8614.27
2413.64	8610.06
2414.56	8606.16
2415.49	8600.83
2416.41	8593.49
2417.33	8583.2
2418.26	8566.92
2419.18	8550.8
2420.1	8533.97
2421.03	8518.59
2421.95	8510.14
2422.87	8505.22
2423.79	8505.1
2424.72	8513.95
2425.64	8506.42
2426.56	8501.38
2427.48	8493.3
2428.41	8481.26
2429.33	8466.24
2430.25	8449.63
2431.17	8433.64
2432.09	8420.05
2433.01	8410.74
2433.93	8409.31
2434.86	8411.16
2435.78	8409.03
2436.7	8403.8
2437.62	8387.87
2438.54	8365.07
2439.46	8345.99
2440.38	8327.32
2441.3	8312.54
2442.22	8301.24
2443.14	8292.83
2444.06	8288.28
2444.98	8287.08
2445.9	8289.51
2446.82	8294.6
2447.73	8296.76
2448.65	8296.95
2449.57	8288.3
2450.49	8276.45
2451.41	8262.34
2452.33	8245.01
2453.25	8229.63
2454.17	8220.83
2455.08	8211.33
2456	8204.34
2456.92	8199.3
2457.84	8197.05
2458.75	8193.08
2459.67	8183.4
2460.59	8176.75
2461.51	8169.73
2462.42	8167.57
2463.34	8165.55
2464.26	8161.95
2465.17	8157.14
2466.09	8150.63
2467	8143.23
2467.92	8132.56
2468.84	8118.29
2469.75	8101.04
2470.67	8082.7
2471.58	8066.32
2472.5	8050.14
2473.42	8046.72
2474.33	8041.01
2475.25	8037.94
2476.16	8044.24
2477.08	8034.56
2477.99	8020.9
2478.9	8016.4
2479.82	8017.34
2480.73	8022.96
2481.65	8033.85
2482.56	8038.8
2483.47	8024.69
2484.39	8016.29
2485.3	8005.78
2486.22	7991.24
2487.13	7980.75
2488.04	7972.93
2488.96	7967.16
2489.87	7959.73
2490.78	7953.84
2491.69	7949.19
2492.61	7946.08
2493.52	7944.74
2494.43	7945
2495.34	7946.52
2496.25	7949.95
2497.17	7953.09
2498.08	7952.73
2498.99	7950.27
2499.9	7940.56
2500.81	7930.68
2501.72	7919.08
2502.63	7906.33
2503.55	7891.35
2504.46	7890.67
2505.37	7891.84
2506.28	7888.5
2507.19	7876.76
2508.1	7862.34
2509.01	7847.89
2509.92	7849.38
2510.83	7848.54
2511.74	7849.19
2512.65	7846.03
2513.56	7846.21
2514.47	7844.93
2515.37	7829.46
2516.28	7817.11
2517.19	7806.19
2518.1	7796
2519.01	7785.39
2519.92	7773.8
2520.83	7770.39
2521.73	7768.3
2522.64	7768.81
2523.55	7776.32
2524.46	7783.53
2525.37	7792.13
2526.27	7801.71
2527.18	7799.5
2528.09	7783.17
2529	7760.35
2529.9	7748.88
2530.81	7742.41
2531.72	7750.56
2532.62	7800.15
2533.53	7622.87
2534.44	7641.61
2535.34	7662.34
2536.25	7684.4
2537.15	7707.01
2538.06	7708.22
2538.96	7668.99
2539.87	7664.49
2540.78	7664.89
2541.68	7666.42
2542.59	7668.01
2543.49	7670.15
2544.4	7672.19
2545.3	7668
2546.21	7657.87
2547.11	7631.63
2548.01	7603.65
2548.92	7585.5
2549.82	7574.16
2550.73	7559.98
2551.63	7553.75
2552.53	7554.06
2553.44	7557.84
2554.34	7552.48
2555.24	7549.77
2556.15	7537.43
2557.05	7529.32
2557.95	7527.5
2558.86	7525.9
2559.76	7523.32
2560.66	7526.27
2561.56	7521.57
2562.46	7509.96
2563.37	7492.54
2564.27	7478.26
2565.17	7463.87
2566.07	7452.84
2566.97	7443.24
2567.88	7434.76
2568.78	7428.09
2569.68	7422.67
2570.58	7418.38
2571.48	7414.38
2572.38	7396.71
2573.28	7388.52
2574.18	7378.3
2575.08	7371.16
2575.98	7375.02
2576.88	7363.25
2577.78	7338.54
2578.68	7323.34
2579.58	7309.87
2580.48	7300.29
2581.38	7293.62
2582.28	7289.88
2583.18	7288.12
2584.08	7286.21
2584.98	7286.58
2585.88	7280.79
2586.77	7273.05
2587.67	7265
2588.57	7250.9
2589.47	7239.81
2590.37	7228.74
2591.27	7216.98
2592.16	7205.72
2593.06	7196.62
2593.96	7191.59
2594.86	7205.73
2595.75	7205.58
2596.65	7199.31
2597.55	7189.3
2598.45	7172.43
2599.34	7162.12
2600.24	7155.4
2601.13	7146.86
2602.03	7139.56
2602.93	7130.55
2603.82	7121.91
2604.72	7113.51
2605.62	7105.37
2606.51	7097.61
2607.41	7090.71
2608.3	7092.9
2609.2	7091.84
2610.09	7087.19
2610.99	7080.62
2611.88	7073.46
2612.78	7065.39
2613.67	7056.64
2614.57	7046.39
2615.46	7035.23
2616.36	7026.35
2617.25	7020.38
2618.14	7018.91
2619.04	7020.37
2619.93	7030.9
2620.83	7035.44
2621.72	7034.25
2622.61	7027.89
2623.5	7017.47
2624.4	7002.09
2625.29	6987.7
2626.18	6973.98
2627.08	6961.8
2627.97	6952.61
2628.86	6947.83
2629.75	6944.16
2630.65	6942.57
2631.54	6940.06
2632.43	6935.16
2633.32	6928.65
2634.21	6921.3
2635.11	6911.32
2636	6900.16
2636.89	6887.98
2637.78	6875.4
2638.67	6862.76
2639.56	6851.71
2640.45	6853.3
2641.34	6851.31
2642.23	6849.75
2643.12	6840.38
2644.01	6818.59
2644.9	6797.1
2645.79	6767.74
2646.68	6749.49
2647.57	6743.31
2648.46	6739.32
2649.35	6736.76
2650.24	6744.96
2651.13	6742.7
2652.02	6738.67
2652.91	6726.66
2653.8	6716.85
2654.69	6712.93
2655.58	6714.61
2656.46	6714
2657.35	6710.7
2658.24	6704.98
2659.13	6696.47
2660.02	6685.34
2660.9	6671.59
2661.79	6655.44
2662.68	6641.95
2663.57	6639.58
2664.45	6635.4
2665.34	6634.01
2666.23	6630.33
2667.11	6623.28
2668	6619.03
2668.89	6618.16
2669.77	6620.12
2670.66	6623.87
2671.55	6625.07
2672.43	6628.16
2673.32	6617.97
2674.21	6607.36
2675.09	6595
2675.98	6580.26
2676.86	6569.49
2677.75	6559.24
2678.63	6554.38
2679.52	6548.13
2680.4	6542.07
2681.29	6536.27
2682.17	6530.35
2683.06	6531.95
2683.94	6544.97
2684.82	6474.98
2685.71	6472.37
2686.59	6486.09
2687.48	6500.82
2688.36	6496.53
2689.24	6489.3
2690.13	6434.87
2691.01	6429.39
2691.89	6421.88
2692.78	6415.02
2693.66	6408.79
2694.54	6403
2695.43	6397.5
2696.31	6392.34
2697.19	6387.53
2698.07	6382.86
2698.96	6376
2699.84	6366.02
2700.72	6338.78
2701.6	6315.9
2702.48	6295.75
2703.36	6305.56
2704.25	6303.06
2705.13	6297.71
2706.01	6293.86
2706.89	6290.17
2707.77	6284.78
2708.65	6280.91
2709.53	6276.31
2710.41	6271.54
2711.29	6266.24
2712.17	6260.28
2713.05	6252.34
2713.93	6232.95
2714.81	6234.28
2715.69	6248.29
2716.57	6252.86
2717.45	6259.18
2718.33	6250.68
2719.21	6216.34
2720.09	6168.76
2720.97	6154.83
2721.85	6250.53
2722.73	6225.74
2723.61	6209.67
2724.48	6193.64
2725.36	6182.76
2726.24	6174.08
2727.12	6166.36
2728	6158.84
2728.88	6153.56
2729.75	6149.05
2730.63	6146.15
2731.51	6139.92
2732.39	6129.95
2733.26	6124.21
2734.14	6110.04
2735.02	6095.32
2735.89	6092.64
2736.77	6094.92
2737.65	6098.57
2738.52	6096.75
2739.4	6093.24
2740.28	6091.11
2741.15	6089.34
2742.03	6089.46
2742.9	6091.77
2743.78	6093.12
2744.65	6090.76
2745.53	6085.35
2746.41	6076.99
2747.28	6064.8
2748.16	6053.26
2749.03	6041.17
2749.91	6027.11
2750.78	6018.37
2751.66	6019
2752.53	6021.62
2753.4	6023.89
2754.28	6026.4
2755.15	6031
2756.02	6015.92
2756.9	5994.41
2757.77	5977.14
2758.65	5964.81
2759.52	5963.57
2760.39	5986.51
2761.27	6049.02
2762.14	5988.26
2763.01	5926.19
2763.88	5931.46
2764.76	5961.11
2765.63	5978.11
2766.5	5975.81
2767.37	5971.53
2768.25	5968.91
2769.12	5942.17
2769.99	5918.35
2770.86	5896.52
2771.73	5889.62
2772.61	5895.85
2773.48	5892.76
2774.35	5887.61
2775.22	5883.01
2776.09	5878.57
2776.96	5870.61
2777.83	5865.67
2778.7	5868.88
2779.57	5867.63
2780.44	5865.91
2781.31	5858.84
2782.18	5851.01
2783.05	5838.67
2783.92	5825
2784.79	5807.94
2785.66	5791.07
2786.53	5775.16
2787.4	5764.99
2788.27	5756.08
2789.14	5750.17
2790.01	5747.04
2790.88	5747.22
2791.75	5751.01
2792.62	5759.06
2793.48	5761.78
2794.35	5750.05
2795.22	5739
2796.09	5725.58
2796.96	5720.21
2797.82	5717.05
2798.69	5721.28
2799.56	5719.23
2800.43	5720.38
2801.29	5714.24
2802.16	5704.52
2803.03	5697.67
2803.9	5691.47
2804.76	5686.16
2805.63	5681.54
2806.5	5677.45
2807.36	5673.82
2808.23	5662.47
2809.09	5655.64
2809.96	5638.38
2810.83	5639.7
2811.69	5636.47
2812.56	5634.22
2813.42	5635.08
2814.29	5632.37
2815.15	5623.21
2816.02	5611.83
2816.88	5598.02
2817.75	5594.29
2818.61	5591.05
2819.48	5599.67
2820.34	5610.55
2821.21	5617.95
2822.07	5620.67
2822.94	5616.93
2823.8	5607.27
2824.66	5591.69
2825.53	5567.43
2826.39	5550.07
2827.26	5537.39
2828.12	5533.67
2828.98	5528.71
2829.85	5524.17
2830.71	5520.49
2831.57	5517.64
2832.43	5515.25
2833.3	5513.3
2834.16	5511.58
2835.02	5509.9
2835.88	5508.62
2836.75	5507.19
2837.61	5505.35
2838.47	5502.75
2839.33	5499.75
2840.19	5496.41
2841.06	5492.12
2841.92	5484.01
2842.78	5473.7
2843.64	5465.85
2844.5	5460.36
2845.36	5457.1
2846.22	5455.66
2847.08	5455.14
2847.94	5456.2
2848.81	5457.12
2849.67	5449.49
2850.53	5436.32
2851.39	5422.84
2852.25	5412.6
2853.11	5411.33
2853.97	5410.51
2854.82	5405.17
2855.68	5402.36
2856.54	5398.36
2857.4	5390.27
2858.26	5375.75
2859.12	5362.05
2859.98	5363.17
2860.84	5363.11
2861.7	5360.17
2862.56	5354.32
2863.41	5346.86
2864.27	5338.4
2865.13	5329.71
2865.99	5320.08
2866.85	5308.47
2867.7	5303.05
2868.56	5297.23
2869.42	5298.3
2870.28	5299.59
2871.13	5302.84
2871.99	5306.7
2872.85	5311
2873.7	5318.64
2874.56	5320.3
2875.42	5318.43
2876.27	5311.8
2877.13	5300.9
2877.99	5289.79
2878.84	5278.18
2879.7	5268
2880.56	5257.67
2881.41	5247.53
2882.27	5237.91
2883.12	5228.68
2883.98	5220.08
2884.83	5212.1
2885.69	5205.08
2886.54	5199.55
2887.4	5195.44
2888.25	5191.88
2889.11	5191.62
2889.96	5194.21
2890.82	5198.6
2891.67	5202.55
2892.52	5205.48
2893.38	5205.78
2894.23	5200.89
2895.09	5195.08
2895.94	5184.16
2896.79	5172.65
2897.65	5160.71
2898.5	5151.07
2899.35	5144.01
2900.21	5139.92
2901.06	5136.87
2901.91	5137.18
2902.76	5138.5
2903.62	5140.28
2904.47	5137.04
2905.32	5130.41
2906.17	5121.9
2907.03	5110.49
2907.88	5096.67
2908.73	5079.76
2909.58	5061.5
2910.43	5051.75
2911.28	5052.25
2912.14	5046.95
2912.99	5042.9
2913.84	5039.17
2914.69	5035.51
2915.54	5031.69
2916.39	5027.57
2917.24	5023.28
2918.09	5018.4
2918.94	5013.12
2919.79	5007.75
2920.64	5002.63
2921.49	5002.6
2922.34	4986.94
2923.19	4980.92
2924.04	4973.03
2924.89	4970.72
2925.74	4968.74
2926.59	4963.82
2927.44	4956.39
2928.29	4941.62
2929.14	4911.54
2929.98	4903.18
2930.83	4897.35
2931.68	4908.23
2932.53	4907.67
2933.38	4906.67
2934.23	4905.79
2935.07	4903.85
2935.92	4900.58
2936.77	4896.49
2937.62	4891.74
2938.47	4886.23
2939.31	4880.48
2940.16	4874.55
2941.01	4868.81
2941.85	4863.2
2942.7	4857.83
2943.55	4852.35
2944.39	4846.67
2945.24	4840.08
2946.09	4831.14
2946.93	4820.96
2947.78	4814.02
2948.63	4807.68
2949.47	4803.98
2950.32	4804.21
2951.16	4791.06
2952.01	4782.83
2952.85	4779.91
2953.7	4779.9
2954.55	4784.13
2955.39	4790.26
2956.24	4796.62
2957.08	4797.7
2957.92	4800.78
2958.77	4792.48
2959.61	4774.08
2960.46	4744.76
2961.3	4733.9
2962.15	4732.07
2962.99	4731.13
2963.83	4731.63
2964.68	4733.39
2965.52	4736.61
2966.37	4740.67
2967.21	4735.48
2968.05	4732.58
2968.9	4722.58
2969.74	4712.56
2970.58	4703.77
2971.42	4695.11
2972.27	4686.54
2973.11	4682.93
2973.95	4679.09
2974.79	4674.82
2975.64	4669.8
2976.48	4663.98
2977.32	4656.97
2978.16	4650.2
2979	4647.06
2979.85	4650.22
2980.69	4651.16
2981.53	4653.04
2982.37	4652.36
2983.21	4650.87
2984.05	4647.81
2984.89	4643.42
2985.73	4637.17
2986.57	4629.98
2987.41	4622.45
2988.25	4616.36
2989.1	4611.41
2989.94	4606.81
2990.77	4603
2991.62	4599.88
2992.45	4597.67
2993.29	4596.19
2994.13	4595.77
2994.97	4595.58
2995.81	4599.26
2996.65	4607.44
2997.49	4612.26
2998.33	4586.62
2999.17	4580.48
