200.833	20841.4
202.102	20867.7
203.371	20871.4
204.639	20865
205.907	20877.3
207.175	20898.3
208.442	20925.8
209.71	20951.4
210.977	20961.6
212.244	20985.4
213.511	20978
214.777	20963.2
216.042	20971
217.309	20996.2
218.575	21029.2
219.84	21068.5
221.106	21104.7
222.371	21145.4
223.635	21187
224.9	21229.2
226.165	21270.7
227.429	21311
228.694	21351.6
229.956	21393.4
231.22	21439.9
232.484	21488.4
233.747	21531.3
235.011	21571.4
236.272	21609.7
237.535	21646.9
238.798	21684.2
240.06	21714.7
241.321	21717.2
242.583	21718.4
243.845	21749.1
245.105	21781.6
246.367	21876.6
247.628	21931.2
248.888	21969.8
250.149	21994.9
251.409	22005.2
252.67	22000.5
253.928	21995.1
255.189	21992.2
256.447	21991.6
257.707	21995.4
258.966	22000.9
260.224	22010.6
261.483	22023.5
262.742	22041.5
263.999	22065.3
265.257	22098.7
266.514	22141.1
267.772	22164.2
269.028	22192.5
270.286	22192.5
271.543	22201.2
272.799	22211.5
274.056	22221.7
275.311	22225.5
276.568	22243.4
277.823	22269.5
279.079	22304.6
280.333	22347.6
281.589	22390.4
282.843	22423
284.099	22454.4
285.352	22480.5
286.607	22498.2
287.86	22518.1
289.114	22539.8
290.368	22560.6
291.621	22579.2
292.875	22597.2
294.127	22614.5
295.38	22630.8
296.632	22646.3
297.884	22660.9
299.137	22676.5
300.388	22701.5
301.641	22727.8
302.891	22749.7
304.142	22766.4
305.394	22781.9
306.644	22795.9
307.894	22805.6
309.146	22813.7
310.395	22819.9
311.645	22825.7
312.895	22833.6
314.144	22841.3
315.393	22848
316.642	22855.4
317.892	22863.2
319.14	22873.1
320.388	22897.1
321.637	22922.8
322.885	22950.1
324.132	22979
325.38	23008.4
326.628	23024.5
327.875	23042.1
329.122	23060.5
330.368	23079.8
331.614	23101.8
332.862	23125
334.108	23147
335.353	23163.8
336.599	23178.7
337.844	23195.4
339.089	23209.9
340.335	23230.5
341.58	23265.7
342.824	23288.6
344.068	23306.6
345.312	23319.4
346.556	23327.4
347.8	23329.1
349.043	23329.1
350.286	23329.3
351.53	23327.8
352.774	23339.2
354.016	23361.6
355.259	23384.3
356.501	23408.8
357.743	23435.8
358.985	23449.2
360.227	23446.5
361.468	23430
362.709	23426.9
363.95	23425.4
365.191	23427.4
366.432	23431.4
367.672	23434.8
368.912	23436.5
370.152	23435.6
371.392	23433.1
372.632	23428.7
373.871	23423.1
375.11	23415.9
376.348	23412.2
377.587	23435.7
378.825	23457.1
380.064	23488.3
381.302	23519.7
382.54	23553
383.778	23566
385.016	23575.5
386.253	23570.7
387.489	23576.8
388.726	23592.8
389.963	23615
391.199	23639.8
392.436	23671.5
393.672	23707.3
394.907	23747.8
396.142	23787.9
397.378	23778.5
398.614	23759.7
399.849	23759.4
401.082	23762.9
402.317	23771.9
403.552	23789.9
404.786	23816.5
406.019	23850.5
407.253	23886.6
408.487	23915.4
409.721	23915.5
410.953	23919.5
412.186	23926.2
413.419	23932.6
414.651	23935.9
415.883	23934.5
417.116	23932.2
418.347	23930.5
419.579	23932.6
420.811	23937.3
422.041	23944
423.272	23952.3
424.504	23958.7
425.733	23964.2
426.964	23964
428.194	23968.4
429.424	23976.9
430.654	23991.1
431.883	24025.8
433.113	24034.7
434.341	24041.8
435.571	24046.1
436.799	24048.2
438.028	24048.1
439.257	24046
440.484	24052.7
441.713	24092.5
442.94	24120.2
444.168	24127
445.394	24129.4
446.622	24129.9
447.848	24129.1
449.076	24130.2
450.301	24134
451.528	24144.8
452.754	24167.7
453.979	24190.8
455.205	24212.2
456.43	24228.9
457.656	24234.1
458.88	24232.9
460.106	24228.3
461.33	24221.9
462.554	24214.8
463.779	24208.5
465.002	24213.3
466.225	24218.2
467.45	24224
468.672	24230.3
469.895	24238.5
471.119	24237.9
472.341	24228.1
473.563	24207.9
474.786	24196.6
476.008	24181.4
477.229	24185.7
478.452	24185.4
479.673	24193.8
480.894	24200.2
482.115	24202.8
483.337	24190
484.557	24149.9
485.777	24117.9
486.997	24106.5
488.218	24099.1
489.438	24100.3
490.657	24106
491.876	24112.3
493.096	24115.8
494.315	24111.5
495.533	24109.3
496.752	24108.6
497.97	24109.9
499.188	24114
500.407	24120.9
501.625	24132.8
502.842	24143.5
504.059	24157
505.276	24169.5
506.493	24178
507.71	24183.5
508.926	24187.1
510.142	24189.3
511.358	24194.3
512.575	24203.9
513.791	24217.6
515.006	24235.8
516.222	24259.6
517.437	24287.2
518.651	24300.9
519.866	24310.8
521.081	24318.4
522.295	24322
523.509	24327.9
524.723	24327.6
525.937	24338
527.15	24350.8
528.363	24374.4
529.576	24391.8
530.789	24406.9
532.002	24412.1
533.215	24416.1
534.426	24409.7
535.638	24391
536.85	24354.3
538.061	24335.6
539.273	24341.6
540.484	24358.5
541.695	24388.7
542.906	24421.6
544.117	24447.9
545.327	24470.3
546.537	24472
547.747	24462.3
548.957	24459.6
550.167	24455
551.377	24446.9
552.585	24441.3
553.794	24440
555.003	24441
556.212	24443.6
557.421	24447.3
558.628	24451.9
559.836	24457.6
561.044	24463.9
562.252	24470.6
563.458	24476.3
564.666	24482.3
565.873	24489.8
567.08	24502
568.286	24513.6
569.493	24522
570.699	24515.2
571.904	24502.9
573.111	24491.3
574.317	24483
575.521	24478.9
576.727	24481.4
577.932	24487.2
579.136	24497.3
580.341	24511.5
581.544	24530.1
582.749	24551.4
583.954	24565.4
585.156	24571.6
586.361	24569.8
587.563	24563.3
588.767	24552.3
589.97	24535.3
591.172	24513.2
592.375	24485.1
593.577	24469.9
594.78	24490.8
595.981	24495.5
597.183	24500.4
598.384	24478.9
599.586	24464.9
600.786	24435.3
601.988	24413
603.188	24394.8
604.389	24394.1
605.589	24406.4
606.79	24435.9
607.989	24467.9
609.188	24479.1
610.389	24471.1
611.587	24435.8
612.787	24413.9
613.986	24393
615.184	24369.7
616.383	24374.3
617.581	24383.2
618.78	24384
619.977	24384.4
621.174	24374.7
622.373	24360.5
623.57	24336.3
624.766	24307.6
625.964	24274.9
627.16	24240.9
628.356	24208.2
629.554	24192.8
630.749	24182.1
631.945	24175.2
633.14	24174.2
634.337	24170
635.532	24157.6
636.726	24130.4
637.921	24108.2
639.117	24113.3
640.311	24114.6
641.505	24116.8
642.699	24142
643.892	24164.4
645.087	24182.8
646.28	24188.5
647.473	24181.7
648.666	24166.8
649.859	24154.4
651.051	24139
652.245	24131.4
653.437	24130.4
654.629	24135.2
655.821	24143.9
657.012	24157.2
658.204	24172.9
659.395	24193.5
660.586	24217.6
661.777	24244.8
662.967	24274
664.158	24295.8
665.349	24315.5
666.539	24286.8
667.729	24246.5
668.919	24211.8
670.109	24193.4
671.298	24197.4
672.487	24233.7
673.676	24254
674.865	24268.7
676.053	24284.6
677.242	24286.5
678.43	24280.1
679.616	24267.9
680.804	24258.6
681.992	24250.5
683.179	24239.4
684.366	24229.6
685.554	24219
686.74	24210
687.927	24202.9
689.114	24200.8
690.3	24206.9
691.486	24205.7
692.671	24206.5
693.856	24192.1
695.042	24160
696.227	24133.8
697.413	24109.2
698.598	24091.2
699.781	24056.9
700.966	24063.5
702.15	24074.2
703.334	24078
704.518	24076.7
705.701	24071.3
706.885	24062.1
708.068	24049.5
709.252	24034
710.433	24017.7
711.616	24010
712.799	24003.5
713.98	23997.4
715.163	23991.5
716.345	23985.5
717.527	23979.9
718.707	23973.6
719.889	23968
721.071	23963.9
722.25	23963
723.432	23974
724.611	24006.5
725.792	24034.8
726.972	24065
728.151	24090.8
729.332	24091.3
730.512	24083.9
731.69	24070.4
732.87	24047
734.048	24034.6
735.227	24035.7
736.405	24051.8
737.584	24076.7
738.761	24092
739.94	24098.6
741.117	24096
742.295	24093.7
743.471	24094.4
744.649	24096.1
745.825	24098.9
747.003	24102.3
748.179	24106.5
749.356	24111.6
750.531	24117.3
751.708	24124.3
752.883	24131.9
754.059	24141.6
755.234	24152.8
756.409	24165.7
757.585	24177.1
758.759	24152.6
759.934	24110.1
761.108	24076.9
762.282	24050.3
763.456	24023.1
764.63	24016.9
765.803	24017.8
766.977	24024.1
768.15	24037.3
769.323	24051.9
770.496	24038.1
771.668	24015.3
772.841	23985.5
774.014	23946.5
775.185	23900.5
776.357	23862.7
777.528	23838.6
778.701	23842
779.872	23852.2
781.042	23857.9
782.213	23861.8
783.383	23859.9
784.555	23857
785.725	23851.3
786.895	23840.5
788.064	23825.2
789.234	23798.8
790.404	23747.3
791.573	23699.6
792.742	23640.2
793.911	23790.1
795.08	23816.6
796.248	23787.9
797.416	23764
798.584	23745.3
799.753	23730.8
800.921	23719.4
802.088	23711
803.256	23750.6
804.423	23721.3
805.59	23691.3
806.756	23661.9
807.923	23637.1
809.089	23620
810.256	23615.6
811.422	23648.6
812.587	23676.9
813.753	23690.9
814.918	23674.4
816.084	23594.3
817.249	23757.1
818.414	23764.6
819.578	23755.9
820.743	23752.7
821.907	23754.8
823.072	23759.5
824.236	23766.5
825.399	23775
826.562	23783.8
827.725	23794.7
828.889	23803.3
830.052	23806.4
831.215	23801
832.377	23796.6
833.54	23796.9
834.701	23799.6
835.863	23803
837.025	23806.9
838.187	23809.2
839.349	23809.6
840.51	23805.2
841.67	23797.3
842.831	23786
843.992	23766.3
845.153	23745.1
846.312	23724.8
847.473	23708
848.633	23696.8
849.793	23688.9
850.951	23684.5
852.111	23682.1
853.27	23682.5
854.428	23683.4
855.588	23677.8
856.747	23659.6
857.904	23609.9
859.063	23615.3
860.221	23627
861.378	23640.4
862.536	23655
863.694	23548.8
864.85	23489.7
866.008	23444.9
867.164	23435.2
868.321	23432.4
869.478	23434.2
870.633	23437.1
871.79	23438.3
872.945	23431.5
874.101	23408.3
875.256	23388.7
876.412	23370
877.566	23352.5
878.722	23336
879.876	23320.2
881.031	23303.2
882.185	23287.8
883.34	23257.5
884.493	23194.5
885.647	23160.1
886.8	23154.8
887.954	23174.3
889.107	23226.8
890.261	23245.3
891.413	23250.4
892.565	23264
893.718	23227.3
894.87	23189
896.023	23181.7
897.174	23185.4
898.326	23200.1
899.478	23204.6
900.629	23203.3
901.779	23196.5
902.931	23189.1
904.081	23182.9
905.231	23179.8
906.383	23180.9
907.532	23184.1
908.682	23190.1
909.831	23198.9
910.982	23210.4
912.131	23225.5
913.28	23250.2
914.429	23275.3
915.578	23295.3
916.727	23288.6
917.875	23263.2
919.023	23239.9
920.171	23217.9
921.32	23199.9
922.467	23215.4
923.614	23224.8
924.761	23235.5
925.908	23246.3
927.055	23258.2
928.203	23269.6
929.349	23275.2
930.496	23267
931.642	23248.2
932.787	23223.1
933.933	23188.8
935.079	23155.2
936.224	23130.4
937.369	23112.9
938.514	23103
939.659	23114.3
940.804	23130.7
941.948	23150.6
943.092	23165.6
944.236	23176.2
945.38	23177
946.524	23172.6
947.667	23162.4
948.811	23143.4
949.954	23119.1
951.097	23080.5
952.24	23034.1
953.383	22988.7
954.525	22945.2
955.667	22974
956.81	22975.4
957.952	22978.7
959.093	22988.1
960.235	23001.9
961.376	22985.3
962.516	22970.6
963.658	22943.3
964.798	22905.6
965.939	22872.7
967.08	22839.3
968.22	22872.2
969.359	22904.8
970.499	22929.9
971.639	22948.7
972.779	22908.9
973.918	22880.2
975.056	22853.6
976.195	22852.1
977.334	22846.6
978.473	22847.1
979.61	22859.6
980.749	22885.5
981.887	22901.4
983.024	22899.6
984.162	22883.3
985.3	22850
986.437	22832.9
987.573	22811.8
988.711	22811.8
989.848	22828.8
990.983	22849.4
992.12	22874.5
993.255	22904.6
994.392	22910.4
995.528	22904.9
996.662	22885.6
997.798	22873.4
998.933	22873.5
1000.07	22884.3
1001.2	22905.3
1002.34	22898.2
1003.47	22886.5
1004.61	22877.6
1005.74	22869.2
1006.87	22865
1008.01	22866
1009.14	22871.9
1010.27	22879.6
1011.41	22887.9
1012.54	22879.8
1013.67	22866.2
1014.81	22843.2
1015.94	22818.4
1017.07	22797.9
1018.2	22780.4
1019.33	22768.4
1020.47	22760.2
1021.6	22754.6
1022.73	22752
1023.86	22751.1
1024.99	22751.3
1026.12	22719.9
1027.25	22679
1028.38	22688.1
1029.51	22688
1030.64	22705.1
1031.77	22673.3
1032.9	22653.1
1034.03	22647.5
1035.16	22647.2
1036.29	22648.5
1037.42	22636.1
1038.55	22616.4
1039.67	22597.1
1040.8	22575.3
1041.93	22550.5
1043.06	22523.7
1044.19	22496.5
1045.31	22468.1
1046.44	22436.4
1047.57	22412.7
1048.69	22410.3
1049.82	22437.6
1050.95	22458.6
1052.08	22464.6
1053.2	22463.1
1054.33	22417
1055.45	22392.8
1056.58	22366.7
1057.7	22349.9
1058.83	22361.4
1059.95	22353.6
1061.08	22345.4
1062.2	22335.4
1063.33	22324
1064.45	22311.5
1065.58	22297.7
1066.7	22279.1
1067.83	22260.5
1068.95	22243.5
1070.07	22231.5
1071.2	22223.7
1072.32	22222.1
1073.44	22225.9
1074.56	22233.5
1075.69	22244.2
1076.81	22259.9
1077.93	22276.1
1079.05	22291.4
1080.17	22299.5
1081.3	22272.7
1082.42	22257
1083.54	22245.9
1084.66	22239.1
1085.78	22240
1086.9	22260.9
1088.02	22288.4
1089.14	22304.8
1090.26	22315
1091.38	22316.4
1092.5	22301.5
1093.62	22292.3
1094.74	22286.8
1095.86	22290.9
1096.98	22296.7
1098.1	22308.6
1099.22	22307.1
1100.34	22292.4
1101.45	22275.8
1102.57	22255.8
1103.69	22234.8
1104.81	22217
1105.93	22201.3
1107.04	22187.4
1108.16	22175.7
1109.28	22165.9
1110.4	22158.1
1111.51	22152.1
1112.63	22148.7
1113.75	22152.3
1114.86	22129.8
1115.98	22098.4
1117.09	22077
1118.21	22051.9
1119.32	22027.6
1120.44	22006.6
1121.55	21991.2
1122.67	21978.7
1123.78	21971.7
1124.9	21963.8
1126.01	21953
1127.13	21942.7
1128.24	21920.3
1129.35	21893
1130.47	21862.4
1131.58	21837.6
1132.7	21811.3
1133.81	21785.1
1134.92	21759
1136.03	21733.2
1137.15	21707.4
1138.26	21679.8
1139.37	21651.4
1140.48	21624.5
1141.59	21599.6
1142.71	21579.7
1143.82	21563.3
1144.93	21550.3
1146.04	21540.7
1147.15	21534.7
1148.26	21532.1
1149.37	21533
1150.48	21536.5
1151.59	21532.7
1152.7	21517
1153.81	21499.5
1154.92	21484.8
1156.03	21474
1157.14	21465.1
1158.25	21458.9
1159.36	21456.5
1160.47	21456
1161.58	21457.6
1162.68	21457.2
1163.79	21443.2
1164.9	21418
1166.01	21393.4
1167.12	21384.1
1168.22	21383.6
1169.33	21385.5
1170.44	21390.2
1171.55	21396.4
1172.65	21404.3
1173.76	21414.8
1174.87	21427.4
1175.97	21441.8
1177.08	21457.7
1178.18	21475
1179.29	21488.7
1180.4	21473.8
1181.5	21459.5
1182.61	21443.5
1183.71	21426.9
1184.82	21411
1185.92	21395.1
1187.02	21421.2
1188.13	21451.3
1189.23	21501.4
1190.34	21430.1
1191.44	21395.1
1192.54	21406.2
1193.65	21431.5
1194.75	21444.9
1195.85	21455.3
1196.96	21467.8
1198.06	21477.5
1199.16	21492.3
1200.26	21487.9
1201.37	21467.6
1202.47	21445.5
1203.57	21433.3
1204.67	21429.7
1205.77	21436.1
1206.87	21441.9
1207.97	21443.9
1209.08	21436.5
1210.18	21427.5
1211.28	21413.1
1212.38	21394.4
1213.48	21370.9
1214.58	21343
1215.68	21310.7
1216.78	21295.2
1217.88	21302.6
1218.98	21311.6
1220.07	21326.2
1221.17	21364.5
1222.27	21405.1
1223.37	21382.9
1224.47	21346.9
1225.57	21303.1
1226.66	21266.8
1227.76	21241.1
1228.86	21219.1
1229.96	21200.8
1231.06	21186
1232.15	21175.1
1233.25	21166.4
1234.35	21159.3
1235.44	21151.9
1236.54	21146.2
1237.63	21141.1
1238.73	21137.2
1239.83	21116.8
1240.92	21076.2
1242.02	21039.1
1243.11	21000.7
1244.21	20982.2
1245.3	20970.6
1246.4	20964.4
1247.49	20964.6
1248.59	20972
1249.68	20985.9
1250.78	20994.4
1251.87	21011.8
1252.96	21008.1
1254.06	20977.2
1255.15	20923.2
1256.24	20889.4
1257.34	20872.9
1258.43	20874.8
1259.52	20893.5
1260.62	20932.5
1261.71	20955
1262.8	20966.1
1263.89	20951.9
1264.98	20917.9
1266.08	20901.3
1267.17	20883.7
1268.26	20879
1269.35	20877.2
1270.44	20880.8
1271.53	20888.3
1272.62	20899.1
1273.71	20910
1274.8	20889.8
1275.89	20881.2
1276.98	20856.2
1278.07	20855
1279.16	20875
1280.25	20900.3
1281.34	20900.2
1282.43	20878.3
1283.52	20876.6
1284.61	20885.4
1285.69	20898.7
1286.78	20909.6
1287.87	20915.7
1288.96	20918.8
1290.05	20918.6
1291.13	20918
1292.22	20917.1
1293.31	20916.7
1294.4	20917.2
1295.48	20919.3
1296.57	20922.5
1297.66	20927
1298.74	20932.9
1299.83	20939.9
1300.92	20946.9
1302	20938.8
1303.09	20930.7
1304.17	20919.2
1305.26	20902.3
1306.34	20876.1
1307.43	20859.8
1308.51	20852.4
1309.6	20855.5
1310.68	20857.3
1311.76	20856.5
1312.85	20855
1313.93	20849.2
1315.02	20841.1
1316.1	20830.3
1317.18	20818.4
1318.27	20812.2
1319.35	20816
1320.43	20834.2
1321.52	20834.7
1322.6	20828.4
1323.68	20814.1
1324.76	20793.2
1325.85	20774
1326.93	20758.7
1328.01	20748.2
1329.09	20738.7
1330.17	20727.6
1331.25	20717.4
1332.33	20696.6
1333.41	20675.6
1334.49	20649.8
1335.58	20630.1
1336.65	20622.8
1337.74	20613.3
1338.82	20614.7
1339.89	20612.4
1340.97	20611.3
1342.05	20606.3
1343.13	20592.2
1344.21	20572.3
1345.29	20552.3
1346.37	20535.4
1347.45	20534.4
1348.53	20547.1
1349.6	20554.4
1350.68	20556
1351.76	20553.4
1352.84	20552.3
1353.92	20549.8
1354.99	20545.7
1356.07	20542.8
1357.15	20530.1
1358.22	20511.2
1359.3	20499.6
1360.38	20493.9
1361.45	20498.3
1362.53	20507.4
1363.61	20536.1
1364.68	20545.6
1365.76	20547.7
1366.83	20536.1
1367.91	20515.3
1368.98	20499.6
1370.06	20487.8
1371.13	20479.9
1372.21	20477.6
1373.28	20478.9
1374.35	20477.6
1375.43	20475.7
1376.5	20465.5
1377.58	20444.7
1378.65	20436.1
1379.72	20434
1380.8	20432.8
1381.87	20439.1
1382.94	20445.1
1384.01	20447
1385.09	20443.9
1386.16	20434
1387.23	20421.4
1388.3	20408.3
1389.38	20399.6
1390.45	20392.7
1391.52	20387.1
1392.59	20385.3
1393.66	20383.7
1393.92	20382.7
1395	20387.7
1396.07	20393
1397.15	20387.8
1398.22	20368.6
1399.3	20352.6
1400.38	20334.4
1401.45	20310.7
1402.53	20283
1403.6	20260.1
1404.68	20243.8
1405.75	20273.1
1406.82	20269.7
1407.9	20264
1408.97	20213.4
1410.05	20202.3
1411.12	20204.5
1412.19	20265.5
1413.27	20294.4
1414.34	20317
1415.41	20239.2
1416.49	20211.7
1417.56	20185.9
1418.63	20161
1419.7	20143.4
1420.78	20136.3
1421.85	20132.7
1422.92	20132.2
1423.99	20121.7
1425.06	20110.5
1426.14	20092.7
1427.21	20074.3
1428.28	20074.6
1429.35	20083.3
1430.42	20091.8
1431.49	20096.9
1432.56	20096.1
1433.63	20094.6
1434.7	20090.1
1435.77	20081.9
1436.84	20071
1437.91	20057.9
1438.98	20043.3
1440.05	20032.8
1441.12	20022.7
1442.18	20017.1
1443.25	20012.5
1444.32	20010.8
1445.39	20011
1446.46	20009.1
1447.53	20005.3
1448.59	19994.6
1449.66	19987.4
1450.73	19977.3
1451.8	19967.3
1452.86	19956.9
1453.93	19950.2
1455	19949.6
1456.06	19956
1457.13	19976.1
1458.2	19971.1
1459.26	19963.7
1460.33	19951.2
1461.39	19935
1462.46	19913.9
1463.52	19909.8
1464.59	19919.6
1465.65	19939.3
1466.72	19959.8
1467.78	19981.7
1468.85	19983.1
1469.91	19937.3
1470.98	19917.5
1472.04	19897.8
1473.1	19886.4
1474.17	19878.7
1475.23	19870.3
1476.3	19864.6
1477.36	19861.8
1478.42	19861.6
1479.48	19861.2
1480.55	19861.1
1481.61	19860.8
1482.67	19858.8
1483.73	19855.8
1484.8	19847.3
1485.86	19834.1
1486.92	19818.9
1487.98	19811.4
1489.04	19814.1
1490.1	19807.3
1491.17	19797.2
1492.23	19778.8
1493.29	19757.6
1494.35	19742.3
1495.41	19730.1
1496.47	19721.9
1497.53	19717.1
1498.59	19710
1499.65	19702.3
1500.71	19694.7
1501.77	19686
1502.83	19677.1
1503.88	19667
1504.94	19655.6
1506	19641.7
1507.06	19616
1508.12	19600.4
1509.18	19589.3
1510.23	19583.5
1511.29	19578.7
1512.35	19577.5
1513.41	19570.7
1514.47	19562.1
1515.52	19552.2
1516.58	19540.8
1517.64	19528.2
1518.69	19513.8
1519.75	19497.7
1520.81	19482.1
1521.86	19471.8
1522.92	19462.9
1523.97	19465.2
1525.03	19460.2
1526.08	19443.7
1527.14	19420.8
1528.2	19391.8
1529.25	19367.1
1530.31	19349.9
1531.36	19346.9
1532.42	19361.5
1533.47	19367
1534.52	19371
1535.58	19372.3
1536.63	19371.3
1537.69	19367.6
1538.74	19361
1539.79	19351.4
1540.84	19336.1
1541.9	19318.7
1542.95	19268.3
1544	19329
1545.06	19343.4
1546.11	19330
1547.16	19312.2
1548.21	19294.4
1549.27	19261.1
1550.32	19242.4
1551.37	19232.8
1552.42	19230.8
1553.47	19234.4
1554.52	19261.6
1555.57	19291.1
1556.62	19304.4
1557.67	19301.8
1558.72	19294
1559.77	19284
1560.82	19273.8
1561.87	19265.2
1562.92	19254.8
1563.97	19243.7
1565.02	19232.9
1566.07	19222.5
1567.12	19213.1
1568.17	19205.2
1569.22	19200.8
1570.27	19196.6
1571.32	19193.9
1572.36	19192.2
1573.41	19191.4
1574.46	19190.7
1575.51	19188.4
1576.56	19182.1
1577.6	19176.4
1578.65	19170.3
1579.7	19161
1580.74	19147.3
1581.79	19113.2
1582.84	19101.5
1583.88	19099.3
1584.93	19099.6
1585.98	19105.6
1587.02	19115.8
1588.07	19128.7
1589.11	19135.9
1590.16	19135.9
1591.2	19128.1
1592.25	19106.8
1593.29	19083.4
1594.34	19060.4
1595.38	19031.7
1596.43	18992.3
1597.47	18969.7
1598.52	18955.1
1599.56	18940.3
1600.6	18933.5
1601.65	18943.3
1602.69	18945
1603.73	18949.1
1604.78	18947.5
1605.82	18939.4
1606.86	18925.6
1607.91	18907.2
1608.95	18884.1
1609.99	18856
1611.03	18823.4
1612.08	18797.8
1613.12	18782.7
1614.16	18772.9
1615.2	18768.6
1616.24	18771.9
1617.28	18775.7
1618.32	18776.3
1619.36	18770.1
1620.41	18760.1
1621.45	18745.9
1622.49	18726.8
1623.53	18703.1
1624.57	18674.7
1625.61	18642.9
1626.65	18614.2
1627.69	18591.1
1628.73	18576.2
1629.76	18565.5
1630.8	18559.3
1631.84	18556.2
1632.88	18551.1
1633.92	18545.8
1634.96	18534.9
1636	18512.6
1637.03	18492.2
1638.07	18470.6
1639.11	18443.5
1640.15	18418.7
1641.19	18400.5
1642.22	18387.7
1643.26	18387.3
1644.3	18386.9
1645.33	18386.4
1646.37	18386.6
1647.41	18387.7
1648.44	18389.3
1649.48	18391.7
1650.52	18395.8
1651.55	18399.9
1652.59	18400.7
1653.62	18395.6
1654.66	18382.5
1655.69	18352.3
1656.73	18320.6
1657.76	18298.8
1658.8	18287.7
1659.83	18288
1660.87	18301
1661.9	18307.2
1662.93	18314.1
1663.97	18315.5
1665	18305.9
1666.04	18283.4
1667.07	18255.1
1668.1	18229.9
1669.14	18209.1
1670.17	18193.2
1671.2	18184.9
1672.23	18188.2
1673.27	18204.6
1674.3	18231.4
1675.33	18250.1
1676.36	18233.5
1677.39	18210.9
1678.43	18188.1
1679.46	18172.6
1680.49	18156.8
1681.52	18144.8
1682.55	18134.5
1683.58	18126.8
1684.61	18120.7
1685.64	18115.8
1686.67	18110.6
1687.7	18100.6
1688.73	18084.8
1689.76	18070.7
1690.79	18054.2
1691.82	18034.8
1692.85	18018.2
1693.88	18000.3
1694.91	18001.3
1695.94	18001.6
1696.97	17996.7
1698	17989.3
1699.02	17980.2
1700.05	17966.9
1701.08	17949.6
1702.11	17928.7
1703.14	17904.4
1704.16	17876.6
1705.19	17862
1706.22	17865.9
1707.25	17867.6
1708.27	17868.4
1709.3	17867.6
1710.33	17861.2
1711.35	17854
1712.38	17838.3
1713.41	17822.4
1714.43	17803.8
1715.46	17784.1
1716.48	17761
1717.51	17736.8
1718.53	17712.2
1719.56	17688.2
1720.58	17690.5
1721.61	17701.6
1722.63	17704.4
1723.66	17709.1
1724.68	17703.4
1725.71	17690.8
1726.73	17673.6
1727.75	17655
1728.78	17633.5
1729.8	17610
1730.83	17584.1
1731.85	17560.3
1732.87	17534.7
1733.89	17512.2
1734.92	17507.4
1735.94	17499.9
1736.96	17491.8
1737.98	17482.3
1739.01	17469
1740.03	17448
1741.05	17422
1742.07	17415.8
1743.09	17423.3
1744.12	17432.4
1745.14	17434.1
1746.16	17431.7
1747.18	17425.5
1748.2	17415.8
1749.22	17403.9
1750.24	17390.4
1751.26	17377.2
1752.28	17364.3
1753.3	17350.4
1754.32	17332.4
1755.34	17312.9
1756.36	17292.8
1757.38	17274.2
1758.4	17260.2
1759.42	17246.4
1760.44	17240.5
1761.45	17236.9
1762.47	17234.1
1763.49	17225.6
1764.51	17205.1
1765.53	17193.1
1766.55	17192.6
1767.56	17208.2
1768.58	17273.1
1769.6	17238.1
1770.61	17220.3
1771.63	17166.3
1772.65	17161.6
1773.67	17149.8
1774.68	17136.6
1775.7	17111.4
1776.72	17085.8
1777.73	17062.4
1778.75	17045.1
1779.76	17033.7
1780.78	17025.7
1781.79	17029.5
1782.81	17036.8
1783.83	17046.1
1784.84	17051.6
1785.85	17045.1
1786.87	17037.1
1787.88	17033.6
1788.9	17027.6
1789.91	17025
1790.93	17018.7
1791.94	17011.4
1792.95	16999.7
1793.97	16978.2
1794.98	16946.2
1796	16912.8
1797.01	16880.8
1798.02	16857.6
1799.03	16840.8
1800.05	16831
1801.06	16826.5
1802.07	16835.3
1803.08	16844.8
1804.1	16820.2
1805.11	16784.5
1806.12	16754.2
1807.13	16733.6
1808.14	16725.8
1809.15	16715
1810.17	16706.5
1811.18	16700.3
1812.19	16694.6
1813.2	16688.3
1814.21	16681.2
1815.22	16672.9
1816.23	16659.7
1817.24	16645.3
1818.25	16629.6
1819.26	16612.5
1820.27	16594.3
1821.28	16575.8
1822.29	16555.7
1823.3	16535.8
1824.3	16516
1825.31	16498
1826.32	16484.2
1827.33	16472.3
1828.34	16462.8
1829.35	16456.5
1830.35	16453.2
1831.36	16455.2
1832.37	16468.6
1833.38	16434
1834.38	16379.1
1835.39	16313.8
1836.4	16284.5
1837.41	16281.9
1838.41	16285.2
1839.42	16282.8
1840.43	16295.5
1841.43	16304.9
1842.44	16320.7
1843.44	16320.8
1844.45	16303.2
1845.46	16275.8
1846.46	16245.6
1847.47	16215.5
1848.47	16184.4
1849.48	16158.8
1850.48	16149.8
1851.49	16141.4
1852.49	16134.2
1853.49	16130.1
1854.5	16121.2
1855.5	16120.6
1856.51	16119.5
1857.51	16099.1
1858.51	16074.7
1859.52	16048.6
1860.52	16025.9
1861.52	16013.1
1862.53	16008.2
1863.53	15999.8
1864.53	15993.9
1865.54	15989.1
1866.54	15984.5
1867.54	15979.4
1868.54	15972.7
1869.54	15963
1870.55	15950.4
1871.55	15934.6
1872.55	15915.8
1873.55	15894.3
1874.55	15880.7
1875.55	15870.6
1876.55	15860.2
1877.55	15843.7
1878.55	15826
1879.55	15809.7
1880.56	15795.4
1881.55	15783.6
1882.56	15773.6
1883.55	15765.4
1884.55	15758.2
1885.55	15751.3
1886.55	15743.6
1887.55	15735.2
1888.55	15725.7
1889.55	15715.3
1890.55	15704.1
1891.55	15691.8
1892.55	15679
1893.54	15666.4
1894.54	15660.7
1895.54	15654.5
1896.54	15660.9
1897.54	15666.9
1898.53	15665.5
1899.53	15640.9
1900.53	15610.3
1901.52	15577.4
1902.52	15543.3
1903.52	15511.1
1904.51	15477.1
1905.51	15472.5
1906.51	15480.1
1907.5	15484
1908.5	15477.6
1909.49	15432.2
1910.49	15405.6
1911.49	15395.3
1912.48	15379.4
1913.48	15366.6
1914.47	15357.2
1915.46	15353.4
1916.46	15348.1
1917.45	15353.1
1918.45	15350.2
1919.44	15327.5
1920.44	15310.5
1921.43	15291.5
1922.43	15272.4
1923.42	15259.7
1924.41	15251
1925.41	15244.2
1926.4	15238.8
1927.39	15233
1928.38	15223.3
1929.38	15201.3
1930.37	15176.5
1931.36	15147.4
1932.35	15115
1933.35	15072.6
1934.34	15067.4
1935.33	15065.8
1936.32	15065.1
1937.31	15068.2
1938.3	15070.5
1939.29	15070
1940.29	15066.9
1941.28	15061.5
1942.27	15053.9
1943.26	15043.5
1944.25	15030.7
1945.24	15015.5
1946.23	14998.2
1947.22	14980.1
1948.21	14965
1949.2	14950.8
1950.19	14934.7
1951.18	14917.2
1952.17	14898.5
1953.16	14876.7
1954.14	14854
1955.13	14831.1
1956.12	14807.2
1957.11	14785.1
1958.1	14762.6
1959.09	14742.9
1960.07	14726.8
1961.06	14714.6
1962.05	14706.9
1963.04	14703.6
1964.02	14704.7
1965.01	14695.5
1966	14688.9
1966.99	14677.5
1967.97	14657.9
1968.96	14642.5
1969.95	14632.9
1970.93	14624.5
1971.92	14628.8
1972.9	14627.2
1973.89	14619.8
1974.88	14608.9
1975.86	14596.8
1976.85	14571
1977.83	14536.6
1978.82	14539.6
1979.8	14539.2
1980.79	14536
1981.77	14529.1
1982.76	14516.6
1983.74	14483.8
1984.72	14443.7
1985.71	14420.4
1986.69	14412
1987.67	14420.8
1988.66	14457.7
1989.64	14431
1990.62	14419.9
1991.61	14404.7
1992.59	14385.9
1993.57	14364.8
1994.56	14341.3
1995.54	14314.2
1996.52	14284.6
1997.5	14270.9
1998.49	14265.9
1999.47	14264.6
2000.45	14269.3
2001.43	14268.1
2002.41	14273.7
2003.39	14270.9
2004.38	14247.6
2005.36	14230.2
2006.34	14215.8
2007.32	14204.8
2008.3	14192.8
2009.28	14180
2010.26	14166.8
2011.24	14143.4
2012.22	14117.5
2013.2	14091.5
2014.18	14064
2015.16	14042.8
2016.14	14025.6
2017.12	14011
2018.1	13998.6
2019.07	13988.5
2020.05	13979.9
2021.03	13971.5
2022.01	13964.5
2022.99	13959.6
2023.97	13954.5
2024.95	13948.9
2025.92	13942.2
2026.9	13933.4
2027.88	13902.9
2028.86	13874.1
2029.83	13841.6
2030.81	13823.7
2031.79	13812.3
2032.76	13803.8
2033.74	13798
2034.72	13791
2035.69	13781.6
2036.67	13768
2037.65	13746.7
2038.62	13732.1
2039.6	13715.4
2040.57	13705.8
2041.55	13709.8
2042.52	13705.2
2043.5	13699.7
2044.47	13678.8
2045.45	13649.1
2046.42	13612
2047.4	13591.6
2048.37	13576.1
2049.35	13562.7
2050.32	13553.1
2051.29	13548
2052.27	13539.7
2053.24	13515.9
2054.21	13490.6
2055.19	13467.8
2056.16	13446.2
2057.13	13431.7
2058.11	13421.9
2059.08	13413.4
2060.05	13411.8
2061.02	13414.5
2062	13416.5
2062.97	13416.1
2063.94	13409.7
2064.91	13401.2
2065.89	13388.6
2066.86	13372.6
2067.83	13352.9
2068.8	13329.9
2069.77	13302.9
2070.74	13280.5
2071.71	13272.9
2072.68	13262.8
2073.65	13253.8
2074.62	13244.6
2075.59	13239.4
2076.56	13236.5
2077.53	13231.6
2078.5	13226.5
2079.47	13215
2080.44	13194.8
2081.41	13172.7
2082.38	13155.9
2083.35	13141.2
2084.32	13127.2
2085.29	13110.1
2086.26	13090.6
2087.23	13068.9
2088.19	13045.3
2089.16	13021.1
2090.13	12992.7
2091.1	12970.6
2092.07	12967.8
2093.03	12976.2
2094	12977.3
2094.97	12972.1
2095.94	12954.8
2096.9	12931
2097.87	12904.5
2098.84	12880.5
2099.8	12855.8
2100.77	12837.9
2101.74	12832.2
2102.7	12836.3
2103.67	12844
2104.63	12839.7
2105.6	12821.1
2106.56	12797.8
2107.53	12769.3
2108.49	12731.1
2109.46	12702.3
2110.42	12683.6
2111.39	12673.7
2112.35	12678.4
2113.32	12683.9
2114.28	12686.7
2115.25	12688.2
2116.21	12690.6
2117.17	12678.5
2118.14	12661.8
2119.1	12640.7
2120.07	12626.1
2121.03	12626.1
2121.99	12650.2
2122.96	12443.5
2123.92	12546
2124.88	12538
2125.84	12517.7
2126.81	12515.5
2127.77	12512.6
2128.73	12509.1
2129.69	12505.4
2130.65	12501.4
2131.62	12495.7
2132.58	12488.6
2133.54	12480.6
2134.5	12470.9
2135.46	12459.2
2136.42	12442.8
2137.38	12414.1
2138.34	12372
2139.3	12333.7
2140.26	12315.1
2141.22	12305.9
2142.18	12301.1
2143.14	12316.4
2144.1	12319.5
2145.06	12321.9
2146.02	12317.3
2146.98	12291.8
2147.94	12272.4
2148.9	12254.4
2149.86	12239.4
2150.82	12225.8
2151.78	12214.4
2152.74	12205.8
2153.69	12199.4
2154.65	12195.2
2155.61	12192.8
2156.57	12169.5
2157.53	12145
2158.48	12130.4
2159.44	12113.9
2160.4	12104.8
2161.36	12099.6
2162.31	12098
2163.27	12088.8
2164.23	12076.4
2165.18	12072.8
2166.14	12040.5
2167.1	12002.8
2168.05	11957.6
2169.01	11905.5
2169.96	11872.3
2170.92	11861
2171.88	11872.2
2172.83	11860.7
2173.79	11838
2174.74	11808.6
2175.7	11796.2
2176.65	11783.5
2177.6	11769.5
2178.56	11755
2179.51	11743.1
2180.47	11729.2
2181.42	11706
2182.38	11671.7
2183.33	11639.3
2184.28	11619.4
2185.24	11611.9
2186.19	11600.3
2187.14	11594.6
2188.1	11595.7
2189.05	11591.7
2190	11579
2190.96	11560.9
2191.91	11542.2
2192.86	11522.4
2193.81	11502.7
2194.76	11482.3
2195.72	11463.9
2196.67	11452.8
2197.62	11439.5
2198.57	11427.5
2199.52	11415
2200.47	11406.6
2201.43	11398.9
2202.38	11394.9
2203.33	11391.2
2204.28	11387.3
2205.23	11380.5
2206.18	11368.8
2207.13	11354
2208.08	11338.4
2209.03	11318.3
2209.98	11316.5
2210.93	11314.6
2211.88	11309.3
2212.83	11300.7
2213.78	11289.3
2214.73	11268.8
2215.67	11250.3
2216.62	11231.2
2217.57	11213.3
2218.52	11208.7
2219.47	11192.2
2220.42	11162.1
2221.37	11127.6
2222.31	11115.5
2223.26	11111.3
2224.21	11113
2225.16	11107.4
2226.1	11104.4
2227.05	11102.5
2228	11100.6
2228.94	11098.9
2229.89	11096.9
2230.84	11094.7
2231.78	11091.6
2232.73	11087.9
2233.68	11081.2
2234.62	11069.2
2235.57	11053.6
2236.51	11038.8
2237.46	11024.9
2238.41	11016.7
2239.35	11008.3
2240.3	11001.9
2241.24	10996.3
2242.19	10989.2
2243.13	10978.4
2244.07	10968
2245.02	10959.2
2245.96	10951.8
2246.91	10943.1
2247.85	10935.4
2248.8	10927.4
2249.74	10920.1
2250.68	10913.9
2251.63	10909.7
2252.57	10910.8
2253.51	10914.5
2254.46	10917.3
2255.4	10915.5
2256.34	10914.8
2257.28	10908.5
2258.23	10904.3
2259.17	10899.8
2260.11	10897
2261.05	10888.3
2262	10870.9
2262.94	10861.5
2263.88	10853.2
2264.82	10846.9
2265.76	10840
2266.7	10832.9
2267.64	10825.7
2268.58	10818.5
2269.53	10810.9
2270.47	10802.8
2271.41	10793.6
2272.35	10792.8
2273.29	10797.4
2274.23	10807.7
2275.17	10786.3
2276.11	10773.1
2277.05	10766.6
2277.99	10760.2
2278.93	10753.8
2279.86	10746.6
2280.8	10741
2281.74	10738.3
2282.68	10740.2
2283.62	10743.6
2284.56	10736.4
2285.5	10725.9
2286.44	10709.1
2287.37	10698.6
2288.31	10697.3
2289.25	10710
2290.19	10702.9
2291.12	10688.4
2292.06	10678.3
2293	10679.4
2293.94	10685.2
2294.87	10690.9
2295.81	10693.9
2296.75	10689.4
2297.68	10685.2
2298.62	10677.8
2299.55	10667.5
2300.49	10653.9
2301.43	10628.3
2302.36	10608.8
2303.3	10614.7
2304.23	10614.7
2305.17	10603.5
2306.1	10589.2
2307.04	10572.7
2307.98	10554.9
2308.91	10539.3
2309.84	10528.3
2310.78	10524.3
2311.71	10524.8
2312.65	10525.5
2313.58	10522
2314.52	10514.2
2315.45	10500.8
2316.38	10483.2
2317.32	10468.6
2317.72	10463.6
2318.66	10467.3
2319.6	10476.9
2320.54	10485
2321.48	10485.7
2322.41	10481.4
2323.35	10469.8
2324.29	10448.5
2325.23	10420
2326.16	10387.8
2327.1	10359.3
2328.04	10336.1
2328.97	10318.6
2329.91	10307.4
2330.85	10303
2331.78	10308.6
2332.72	10316.1
2333.66	10319.1
2334.59	10317.7
2335.53	10315.7
2336.46	10287
2337.4	10275.1
2338.33	10277.1
2339.27	10281.3
2340.2	10288.7
2341.14	10279.7
2342.07	10266.8
2343.01	10253.9
2343.94	10242.3
2344.88	10228.1
2345.81	10213.5
2346.75	10198.1
2347.68	10182.4
2348.61	10166.9
2349.55	10151.9
2350.48	10140.5
2351.41	10130.1
2352.35	10126.7
2353.28	10127.7
2354.21	10129.5
2355.15	10132.9
2356.08	10130.4
2357.01	10125.7
2357.94	10120.3
2358.88	10114.7
2359.81	10108.6
2360.74	10102.8
2361.67	10099.7
2362.6	10095.6
2363.54	10091.2
2364.47	10086.9
2365.4	10082.6
2366.33	10075.1
2367.26	10066.6
2368.19	10044.7
2369.12	10024.2
2370.05	10019.2
2370.98	10026
2371.91	10018.7
2372.84	10011.3
2373.77	10002.9
2374.7	9994.03
2375.63	9981.66
2376.56	9968.76
2377.49	9953.67
2378.42	9942.14
2379.35	9935.26
2380.28	9930.19
2381.21	9926.95
2382.14	9929.35
2383.07	9924.66
2384	9919.88
2384.92	9912.98
2385.85	9904.8
2386.78	9894.87
2387.71	9886.71
2388.64	9885.16
2389.56	9900
2390.49	9908.16
2391.42	9906.04
2392.35	9881.36
2393.27	9855.41
2394.2	9844.26
2395.13	9838.82
2396.05	9832.47
2396.98	9826.11
2397.91	9818.51
2398.83	9816.79
2399.76	9801.85
2400.69	9792.73
2401.61	9773.64
2402.54	9757.63
2403.46	9757.56
2404.39	9766.79
2405.31	9773.59
2406.24	9775.28
2407.17	9770.11
2408.09	9762.01
2409.01	9750.22
2409.94	9735.78
2410.86	9718.71
2411.79	9697.97
2412.71	9677.48
2413.64	9661.37
2414.56	9661.06
2415.49	9685.05
2416.41	9702.4
2417.33	9683.02
2418.26	9671.89
2419.18	9652.84
2420.1	9628.25
2421.03	9605.21
2421.95	9576.89
2422.87	9560.26
2423.79	9555.71
2424.72	9558.88
2425.64	9558.17
2426.56	9558.17
2427.48	9554.47
2428.41	9549.22
2429.33	9541.94
2430.25	9532.56
2431.17	9520.88
2432.09	9507.32
2433.01	9491.81
2433.93	9475.48
2434.86	9462.25
2435.78	9451.81
2436.7	9445.81
2437.62	9438.11
2438.54	9430.27
2439.46	9420.17
2440.38	9408.6
2441.3	9396.19
2442.22	9382.66
2443.14	9366.93
2444.06	9351.15
2444.98	9339.37
2445.9	9333.8
2446.82	9327.64
2447.73	9322.53
2448.65	9318.45
2449.57	9314.11
2450.49	9306.73
2451.41	9301.08
2452.33	9295.29
2453.25	9289.88
2454.17	9283.94
2455.08	9280.05
2456	9264.19
2456.92	9242.25
2457.84	9208.84
2458.75	9189.2
2459.67	9183.12
2460.59	9184.39
2461.51	9194.45
2462.42	9190.86
2463.34	9187.81
2464.26	9185.92
2465.17	9182.69
2466.09	9178.06
2467	9178.41
2467.92	9178.99
2468.84	9181.51
2469.75	9170.08
2470.67	9151.12
2471.58	9126.05
2472.5	9100.08
2473.42	9085.84
2474.33	9076.19
2475.25	9065.33
2476.16	9055.86
2477.08	9048.8
2477.99	9042.62
2478.9	9037.43
2479.82	9032.57
2480.73	9027.94
2481.65	9023.21
2482.56	9016.37
2483.47	9008.82
2484.39	9001.17
2485.3	8990.46
2486.22	8981.85
2487.13	8975.79
2488.04	8976.38
2488.96	8982.5
2489.87	8981.76
2490.78	8980.19
2491.69	8977.05
2492.61	8964.24
2493.52	8947.51
2494.43	8924.52
2495.34	8912.77
2496.25	8918.73
2497.17	8928.54
2498.08	8936.1
2498.99	8940.26
2499.9	8941.71
2500.81	8942.53
2501.72	8940.32
2502.63	8935.35
2503.55	8927.17
2504.46	8915.74
2505.37	8900.79
2506.28	8884.07
2507.19	8867.01
2508.1	8850.99
2509.01	8835.21
2509.92	8821.39
2510.83	8810.53
2511.74	8801.48
2512.65	8794.48
2513.56	8791.48
2514.47	8791.21
2515.37	8793.26
2516.28	8796.68
2517.19	8798.61
2518.1	8799.65
2519.01	8795.8
2519.92	8790.81
2520.83	8787.87
2521.73	8786.39
2522.64	8786.03
2523.55	8772.26
2524.46	8761.74
2525.37	8751.08
2526.27	8741.58
2527.18	8734.86
2528.09	8728.8
2529	8723.38
2529.9	8718.49
2530.81	8713.99
2531.72	8709.63
2532.62	8703.36
2533.53	8697.04
2534.44	8682.18
2535.34	8666.65
2536.25	8654.61
2537.15	8651.1
2538.06	8650.3
2538.96	8635.3
2539.87	8625.48
2540.78	8614.88
2541.68	8606.67
2542.59	8605.89
2543.49	8600.15
2544.4	8589.83
2545.3	8573.35
2546.21	8555.79
2547.11	8539.25
2548.01	8521.48
2548.92	8510.44
2549.82	8510.56
2550.73	8520.22
2551.63	8534.55
2552.53	8536
2553.44	8529.13
2554.34	8513.74
2555.24	8493.64
2556.15	8471.24
2557.05	8454.04
2557.95	8438.48
2558.86	8424.66
2559.76	8413.31
2560.66	8404.48
2561.56	8398.54
2562.46	8395.89
2563.37	8394.7
2564.27	8393.12
2565.17	8386.39
2566.07	8379.05
2566.97	8370.96
2567.88	8361.88
2568.78	8351.7
2569.68	8340.4
2570.58	8327.88
2571.48	8314.17
2572.38	8299.11
2573.28	8282.36
2574.18	8268.04
2575.08	8262.49
2575.98	8256.85
2576.88	8252.42
2577.78	8249.3
2578.68	8247.62
2579.58	8246.89
2580.48	8246.49
2581.38	8245.13
2582.28	8242.31
2583.18	8244.88
2584.08	8232.02
2584.98	8206.49
2585.88	8190.65
2586.77	8178.33
2587.67	8168.31
2588.57	8159.37
2589.47	8149.65
2590.37	8143.14
2591.27	8136.84
2592.16	8131.33
2593.06	8126.22
2593.96	8121.06
2594.86	8114.15
2595.75	8101.39
2596.65	8088.4
2597.55	8074.92
2598.45	8061.28
2599.34	8048.98
2600.24	8050.01
2601.13	8047.91
2602.03	8049.83
2602.93	8046.68
2603.82	8043.86
2604.72	8032.32
2605.62	8020.05
2606.51	8004.83
2607.41	7994.62
2608.3	7990.84
2609.2	7989.04
2610.09	7987.93
2610.99	7987.37
2611.88	7978.84
2612.78	7963.84
2613.67	7942.49
2614.57	7927.35
2615.46	7907.89
2616.36	7895.18
2617.25	7890.63
2618.14	7893.36
2619.04	7898.94
2619.93	7905.27
2620.83	7910.67
2621.72	7911.49
2622.61	7907.51
2623.5	7899.49
2624.4	7889.71
2625.29	7878.2
2626.18	7865.82
2627.08	7852.58
2627.97	7838.83
2628.86	7827.9
2629.75	7818.63
2630.65	7811.43
2631.54	7802.18
2632.43	7794.9
2633.32	7787.46
2634.21	7776.95
2635.11	7758.26
2636	7730.67
2636.89	7707.95
2637.78	7687.07
2638.67	7673.66
2639.56	7663.22
2640.45	7655.79
2641.34	7651.46
2642.23	7650.91
2643.12	7651.47
2644.01	7648.87
2644.9	7638.54
2645.79	7622.03
2646.68	7608.33
2647.57	7597.19
2648.46	7595.57
2649.35	7590.93
2650.24	7595.91
2651.13	7593.35
2652.02	7584.91
2652.91	7570.68
2653.8	7552.06
2654.69	7532.13
2655.58	7527.48
2656.46	7519.53
2657.35	7512.09
2658.24	7506.23
2659.13	7502.25
2660.02	7493.27
2660.9	7479.11
2661.79	7468.39
2662.68	7459.33
2663.57	7451.98
2664.45	7446.71
2665.34	7442.94
2666.23	7441.19
2667.11	7441.64
2668	7445.85
2668.89	7437.79
2669.77	7424.93
2670.66	7417.8
2671.55	7409.45
2672.43	7400.97
2673.32	7392.46
2674.21	7384.55
2675.09	7376.55
2675.98	7368.46
2676.86	7359.83
2677.75	7351.05
2678.63	7342.63
2679.52	7335.51
2680.4	7329.02
2681.29	7323.31
2682.17	7317.85
2683.06	7306.5
2683.94	7286.03
2684.82	7267.83
2685.71	7255.18
2686.59	7243.62
2687.48	7233.78
2688.36	7223.85
2689.24	7216.62
2690.13	7212.21
2691.01	7210.68
2691.89	7211.74
2692.78	7215.65
2693.66	7218.21
2694.54	7211.11
2695.43	7201.55
2696.31	7190.71
2697.19	7178.6
2698.07	7165.84
2698.96	7151.95
2699.84	7150.16
2700.72	7144.5
2701.6	7139.43
2702.48	7133.15
2703.36	7122.84
2704.25	7112.13
2705.13	7101.1
2706.01	7090.45
2706.89	7080.93
2707.77	7072.41
2708.65	7069.21
2709.53	7065.18
2710.41	7061.8
2711.29	7057.59
2712.17	7047.13
2713.05	7037.99
2713.93	7015.7
2714.81	7006.63
2715.69	6996.9
2716.57	6989.07
2717.45	6992.01
2718.33	6989.19
2719.21	6974.13
2720.09	6960.47
2720.97	6948
2721.85	6937.05
2722.73	6927.78
2723.61	6920.25
2724.48	6916.73
2725.36	6915.07
2726.24	6914.33
2727.12	6914.29
2728	6907.19
2728.88	6901.13
2729.75	6893.05
2730.63	6883.54
2731.51	6872.07
2732.39	6859.15
2733.26	6848.63
2734.14	6839.86
2735.02	6842.16
2735.89	6843.4
2736.77	6841.88
2737.65	6834.92
2738.52	6827.7
2739.4	6820.42
2740.28	6811.89
2741.15	6806.12
2742.03	6807.62
2742.9	6809.04
2743.78	6810.76
2744.65	6814.66
2745.53	6814.48
2746.41	6801.71
2747.28	6791.16
2748.16	6777.84
2749.03	6761.26
2749.91	6746.82
2750.78	6735.39
2751.66	6731.6
2752.53	6730.17
2753.4	6730.52
2754.28	6733.03
2755.15	6735.26
2756.02	6740.57
2756.9	6724.7
2757.77	6700.4
2758.65	6685.45
2759.52	6678.56
2760.39	6695.19
2761.27	6747.8
2762.14	6685.6
2763.01	6666.35
2763.88	6663.18
2764.76	6642.94
2765.63	6647.08
2766.5	6650.47
2767.37	6652.57
2768.25	6648.68
2769.12	6642.06
2769.99	6629.78
2770.86	6610.59
2771.73	6595.06
2772.61	6580.87
2773.48	6567.94
2774.35	6557.65
2775.22	6549.44
2776.09	6543.93
2776.96	6545.03
2777.83	6544.42
2778.7	6543.7
2779.57	6535.03
2780.44	6525.73
2781.31	6511.06
2782.18	6500.71
2783.05	6494.69
2783.92	6487.62
2784.79	6481.8
2785.66	6476.14
2786.53	6471.13
2787.4	6467.87
2788.27	6465.89
2789.14	6466.76
2790.01	6467.35
2790.88	6468.82
2791.75	6466.56
2792.62	6457.6
2793.48	6446.76
2794.35	6432.16
2795.22	6413.62
2796.09	6397.3
2796.96	6385.13
2797.82	6384.59
2798.69	6389.18
2799.56	6392.86
2800.43	6395.85
2801.29	6393.75
2802.16	6386.75
2803.03	6375.42
2803.9	6353.59
2804.76	6331.44
2805.63	6312.17
2806.5	6301.89
2807.36	6295.95
2808.23	6296.73
2809.09	6297.4
2809.96	6306.9
2810.83	6312.32
2811.69	6308.87
2812.56	6302.57
2813.42	6291.58
2814.29	6282.42
2815.15	6271.23
2816.02	6263.5
2816.88	6256.71
2817.75	6251.33
2818.61	6247.13
2819.48	6244.23
2820.34	6242.47
2821.21	6242.25
2822.07	6241.33
2822.94	6282.31
2823.8	6238.15
2824.66	6193.07
2825.53	6181.71
2826.39	6197.65
2827.26	6205.23
2828.12	6209.73
2828.98	6209.1
2829.85	6208.67
2830.71	6202.11
2831.57	6187.86
2832.43	6177.95
2833.3	6167.45
2834.16	6157.64
2835.02	6148.2
2835.88	6139.44
2836.75	6131.24
2837.61	6123.73
2838.47	6117.28
2839.33	6112.09
2840.19	6105.36
2841.06	6096.63
2841.92	6086.16
2842.78	6077.41
2843.64	6069.34
2844.5	6060.81
2845.36	6053.26
2846.22	6046.2
2847.08	6040.08
2847.94	6035.08
2848.81	6033.05
2849.67	6046.47
2850.53	6061.48
2851.39	6066.03
2852.25	6061.13
2853.11	6044.5
2853.97	6031.42
2854.82	6018.41
2855.68	6006.49
2856.54	5996.82
2857.4	5989.14
2858.26	5982.73
2859.12	5977.84
2859.98	5974.35
2860.84	5972.27
2861.7	5969.69
2862.56	5967.58
2863.41	5965.19
2864.27	5962.63
2865.13	5959.82
2865.99	5956.67
2866.85	5952.8
2867.7	5948.77
2868.56	5944.29
2869.42	5939.6
2870.28	5934.12
2871.13	5925.82
2871.99	5915.11
2872.85	5902.92
2873.7	5893.32
2874.56	5891.06
2875.42	5891.96
2876.27	5890.15
2877.13	5886.84
2877.99	5882.18
2878.84	5876.66
2879.7	5867.99
2880.56	5858.84
2881.41	5848.12
2882.27	5840.05
2883.12	5845.92
2883.98	5843.86
2884.83	5841.68
2885.69	5814.46
2886.54	5800.82
2887.4	5788.55
2888.25	5776.38
2889.11	5764.27
2889.96	5755.73
2890.82	5749.39
2891.67	5745.95
2892.52	5745.47
2893.38	5748.11
2894.23	5745.75
2895.09	5745.89
2895.94	5740.15
2896.79	5730.63
2897.65	5721.85
2898.5	5721.04
2899.35	5719.98
2900.21	5718.8
2901.06	5710.88
2901.91	5698.3
2902.76	5683.74
2903.62	5670.71
2904.47	5660.65
2905.32	5652.87
2906.17	5647.02
2907.03	5641.18
2907.88	5634.15
2908.73	5626.23
2909.58	5617.98
2910.43	5609.06
2911.28	5599.9
2912.14	5589.47
2912.99	5581.83
2913.84	5580.92
2914.69	5582.26
2915.54	5580.75
2916.39	5577.17
2917.24	5571.53
2918.09	5565.13
2918.94	5557.86
2919.79	5549.62
2920.64	5540.65
2921.49	5530.91
2922.34	5520.5
2923.19	5509.48
2924.04	5497.98
2924.89	5487.22
2925.74	5476.05
2926.59	5469.92
2927.44	5466.27
2928.29	5466.87
2929.14	5471.47
2929.98	5471.81
2930.83	5470.57
2931.68	5468.32
2932.53	5464.75
2933.38	5460.17
2934.23	5453.79
2935.07	5446.24
2935.92	5437.9
2936.77	5428.68
2937.62	5428.39
2938.47	5421.01
2939.31	5404.16
2940.16	5390.05
2941.01	5377.47
2941.85	5369.57
2942.7	5362.38
2943.55	5356.19
2944.39	5351.1
2945.24	5346.75
2946.09	5343.07
2946.93	5339.59
2947.78	5335.45
2948.63	5332.49
2949.47	5330.11
2950.32	5327.83
2951.16	5325.77
2952.01	5322.35
2952.85	5313.81
2953.7	5299.77
2954.55	5289
2955.39	5284.11
2956.24	5281.11
2957.08	5279.1
2957.92	5274.91
2958.77	5270.61
2959.61	5265.9
2960.46	5260.55
2961.3	5254
2962.15	5250.44
2962.99	5247.48
2963.83	5246.47
2964.68	5244.48
2965.52	5238.46
2966.37	5232.34
2967.21	5228.79
2968.05	5224.48
2968.9	5224.53
2969.74	5219.89
2970.58	5211.77
2971.42	5203.72
2972.27	5199.22
2973.11	5194.24
2973.95	5189.38
2974.79	5183.19
2975.64	5174.07
2976.48	5164.43
2977.32	5154.94
2978.16	5143.19
2979	5134.8
2979.85	5137.7
2980.69	5146.1
2981.53	5158.23
2982.37	5150.59
2983.21	5138.86
2984.05	5129.33
2984.89	5121.11
2985.73	5114.15
2986.57	5108.46
2987.41	5103.92
2988.25	5100.28
2989.1	5097.28
2989.94	5093.22
2990.77	5090.58
2991.62	5088.45
2992.45	5086.75
2993.29	5085.6
2994.13	5084.36
2994.97	5083.89
2995.81	5070.02
2996.65	5062.38
2997.49	5048.13
2998.33	5066.44
2999.17	5036.1
