200.833	18769.3
202.102	18830.9
203.371	18806.5
204.639	18815.2
205.907	18836.7
207.175	18871.1
208.442	18871.6
209.71	18873.5
210.977	18860.8
212.244	18857.9
213.511	18861.5
214.777	18877.1
216.042	18898.7
217.309	18927.2
218.575	18958.3
219.84	18996.9
221.106	19037.6
222.371	19081.2
223.635	19124
224.9	19162.7
226.165	19198.3
227.429	19229.9
228.694	19264.4
229.956	19303.5
231.22	19351.1
232.484	19405
233.747	19452.4
235.011	19466.7
236.272	19510.9
237.535	19550.9
238.798	19593.1
240.06	19636.6
241.321	19680.9
242.583	19703.9
243.845	19709.1
245.105	19706.9
246.367	19687
247.628	19697.3
248.888	19749.5
250.149	19790.4
251.409	19834.1
252.67	19868.4
253.928	19882.9
255.189	19845.8
256.447	19846.9
257.707	19856.8
258.966	19868.1
260.224	19879.7
261.483	19893.5
262.742	19909.3
263.999	19926.3
265.257	19944.9
266.514	19965
267.772	19986.8
269.028	20010.3
270.286	20035.5
271.543	20062.1
272.799	20084.5
274.056	20100.3
275.311	20114.3
276.568	20122.8
277.823	20147
279.079	20183.1
280.333	20221.2
281.589	20247.7
282.843	20271.3
284.099	20293.6
285.352	20313.8
286.607	20329.5
287.86	20344.9
289.114	20359.4
290.368	20375.8
291.621	20398.3
292.875	20429.7
294.127	20463.4
295.38	20492
296.632	20505.4
297.884	20522.5
299.137	20522.6
300.388	20518.9
301.641	20520
302.891	20524.9
304.142	20533.4
305.394	20545.2
306.644	20560.3
307.894	20576
309.146	20592.4
310.395	20609.6
311.645	20627.2
312.895	20645.5
314.144	20659.5
315.393	20669.7
316.642	20681.7
317.892	20695.8
319.14	20716.2
320.388	20741.8
321.637	20747.7
322.885	20751.9
324.132	20758
325.38	20759.6
326.628	20764.4
327.875	20778.6
329.122	20797.2
330.368	20821.7
331.614	20852.5
332.862	20903.2
334.108	20956.4
335.353	21003.1
336.599	21040.9
337.844	21068.9
339.089	21088.7
340.335	21100.8
341.58	21100.3
342.824	21091.5
344.068	21077.2
345.312	21059.5
346.556	21068.8
347.8	21082.9
349.043	21104.9
350.286	21124.3
351.53	21135.8
352.774	21157.2
354.016	21162.5
355.259	21156.1
356.501	21150.3
357.743	21150.1
358.985	21160.1
360.227	21177.3
361.468	21216.3
362.709	21231.2
363.95	21233.3
365.191	21235.1
366.432	21238.4
367.672	21226.6
368.912	21227.6
370.152	21261.9
371.392	21259.4
372.632	21264.3
373.871	21270.1
375.11	21276.7
376.348	21285.6
377.587	21297.3
378.825	21310.6
380.064	21325.2
381.302	21342.1
382.54	21358.1
383.778	21358.4
385.016	21354.9
386.253	21349.6
387.489	21347.6
388.726	21364.1
389.963	21404.3
391.199	21433.2
392.436	21464.3
393.672	21494
394.907	21519.7
396.142	21541.9
397.378	21556.8
398.614	21569.6
399.849	21580.3
401.082	21591.6
402.317	21624.2
403.552	21626.8
404.786	21627.6
406.019	21615.4
407.253	21610.9
408.487	21612.6
409.721	21615.7
410.953	21618.5
412.186	21642
413.419	21664.1
414.651	21685.9
415.883	21707.2
417.116	21721.7
418.347	21727.9
419.579	21724.4
420.811	21718.6
422.041	21712.8
423.272	21712.6
424.504	21739.1
425.733	21755.3
426.964	21756.1
428.194	21744.6
429.424	21736
430.654	21733.2
431.883	21734.4
433.113	21736.5
434.341	21747.6
435.571	21757.8
436.799	21769.8
438.028	21782.4
439.257	21798.2
440.484	21817.6
441.713	21839.2
442.94	21863.3
444.168	21887.6
445.394	21895.8
446.622	21902.7
447.848	21911.3
449.076	21916.9
450.301	21920.9
451.528	21923.6
452.754	21925.5
453.979	21927
455.205	21927.8
456.43	21927.9
457.656	21926.9
458.88	21930.5
460.106	21937.3
461.33	21947.2
462.554	21957.1
463.779	21966.5
465.002	21974.7
466.225	21981.2
467.45	21985.8
468.672	21988.7
469.895	21989.3
471.119	21987.5
472.341	21983
473.563	21975.3
474.786	21964.7
476.008	21951.5
477.229	21937.7
478.452	21926.3
479.673	21931.7
480.894	21944.8
482.115	21960.9
483.337	21991.7
484.557	22006.5
485.777	21998.5
486.997	21982
488.218	21958.5
489.438	21927.8
490.657	21891.2
491.876	21877.6
493.096	21874.4
494.315	21885.3
495.533	21901.9
496.752	21918.5
497.97	21933.8
499.188	21950.5
500.407	21954.9
501.625	21948.3
502.842	21931.3
504.059	21924.9
505.276	21913.3
506.493	21902.3
507.71	21905.5
508.926	21920.8
510.142	21941.7
511.358	21960.7
512.575	21976.8
513.791	21992.4
515.006	22008.1
516.222	22022.6
517.437	22035.6
518.651	22046.9
519.866	22056.1
521.081	22061.3
522.295	22065.4
523.509	22067.2
524.723	22067
525.937	22063.7
527.15	22071
528.363	22097.4
529.576	22122.6
530.789	22139
532.002	22132.8
533.215	22122.3
534.426	22103
535.638	22082.6
536.85	22103.6
538.061	22197
539.273	22211.1
540.484	22202
541.695	22207.6
542.906	22214.7
544.117	22219.2
545.327	22218.7
546.537	22213.3
547.747	22208.1
548.957	22202.2
550.167	22196.4
551.377	22193
552.585	22188.7
553.794	22186.6
555.003	22187.9
556.212	22187.2
557.421	22184.5
558.628	22180.4
559.836	22173.3
561.044	22171.6
562.252	22170.7
563.458	22173.2
564.666	22176.5
565.873	22190.9
567.08	22202.4
568.286	22213.9
569.493	22216.8
570.699	22205.9
571.904	22193.3
573.111	22185.7
574.317	22183
575.521	22183.4
576.727	22186.5
577.932	22198
579.136	22213
580.341	22229.9
581.544	22249.9
582.749	22265.3
583.954	22260.2
585.156	22253.6
586.361	22244.9
587.563	22234.6
588.767	22223.1
589.97	22220.5
591.172	22220.9
592.375	22220.9
593.577	22231.5
594.78	22242.3
595.981	22253.1
597.183	22258.4
598.384	22242.5
599.586	22223.7
600.786	22202.5
601.988	22188.2
603.188	22175
604.389	22171.7
605.589	22170.3
606.79	22172.2
607.989	22177
609.188	22185.9
610.389	22192.5
611.587	22172.9
612.787	22146.5
613.986	22113.2
615.184	22088.4
616.383	22066.8
617.581	22040.6
618.78	22036.3
619.977	22045.4
621.174	22050.3
622.373	22052.7
623.57	22049.8
624.766	22044.3
625.964	22036.2
627.16	22023.8
628.356	22008.5
629.554	21990.8
630.749	21971.9
631.945	21957.7
633.14	21943.1
634.337	21927.8
635.532	21892.9
636.726	21866.2
637.921	21846.8
639.117	21864.6
640.311	21872.8
641.505	21891.6
642.699	21912.6
643.892	21940.6
645.087	21954.1
646.28	21952.3
647.473	21932.9
648.666	21913.6
649.859	21898.2
651.051	21886.8
652.245	21878.3
653.437	21902.3
654.629	21906.3
655.821	21910.6
657.012	21908.8
658.204	21908.1
659.395	21911.5
660.586	21919.2
661.777	21928.6
662.967	21940.3
664.158	21954.5
665.349	21971.3
666.539	21990.7
667.729	22012.1
668.919	22010.9
670.109	22001.7
671.298	21998.2
672.487	22003.8
673.676	22018.9
674.865	22037.3
676.053	22054
677.242	22073.9
678.43	22090.6
679.616	22079.9
680.804	22061.2
681.992	22030.2
683.179	21982.8
684.366	21959.4
685.554	21952.4
686.74	21957.1
687.927	21977.9
689.114	21999.5
690.3	22017.2
691.486	21976.3
692.671	21966.6
693.856	21971.6
695.042	21970.8
696.227	21960.6
697.413	21954.2
698.598	21945.3
699.781	21934.3
700.966	21921.6
702.15	21907.6
703.334	21892.3
704.518	21875.9
705.701	21858.1
706.885	21839.1
708.068	21818.8
709.252	21798.2
710.433	21778.7
711.616	21765.6
712.799	21750.2
713.98	21739
715.163	21760.9
716.345	21778.5
717.527	21776.2
718.707	21781
719.889	21774.4
721.071	21775.3
722.25	21772
723.432	21770
724.611	21773.1
725.792	21784.2
726.972	21807.6
728.151	21852
729.332	21887.5
730.512	21915.6
731.69	21916.4
732.87	21901.6
734.048	21885.6
735.227	21870.9
736.405	21847.7
737.584	21831
738.761	21822.5
739.94	21812.3
741.117	21827.1
742.295	21848.7
743.471	21868.8
744.649	21892.6
745.825	21896.7
747.003	21897.5
748.179	21881.6
749.356	21882.7
750.531	21882.9
751.708	21883
752.883	21883.1
754.059	21883.4
755.234	21883.7
756.409	21884.5
757.585	21887.7
758.759	21891.1
759.934	21895.1
761.108	21892.6
762.282	21868.4
763.456	21854.4
764.63	21851.1
765.803	21841.1
766.977	21842.5
768.15	21861.3
769.323	21868.8
770.496	21886.9
771.668	21839.4
772.841	21755
774.014	21710.4
775.185	21677.9
776.357	21718.5
777.528	21723.8
778.701	21724.5
779.872	21726.4
781.042	21700.4
782.213	21697.4
783.383	21702.1
784.555	21698
785.725	21685.9
786.895	21666.9
788.064	21647.8
789.234	21614.8
790.404	21587
791.573	21567.7
792.742	21556.7
793.911	21556.1
795.08	21575.6
796.248	21578.2
797.416	21585.6
798.584	21579.4
799.753	21557.9
800.921	21517.9
802.088	21484
803.256	21459.2
804.423	21443.8
805.59	21459
806.756	21498
807.923	21526.9
809.089	21545.2
810.256	21550
811.422	21557.5
812.587	21540.6
813.753	21525.9
814.918	21524.2
816.084	21510.7
817.249	21527.9
818.414	21560.7
819.578	21581.6
820.743	21596
821.907	21597.1
823.072	21582.1
824.236	21527.8
825.399	21520.7
826.562	21551.3
827.725	21578.3
828.889	21601.6
830.052	21618.8
831.215	21617.1
832.377	21616.9
833.54	21613.1
834.701	21606.8
835.863	21596.8
837.025	21586.6
838.187	21576.1
839.349	21571.6
840.51	21579
841.67	21584
842.831	21589.7
843.992	21595.3
845.153	21593.7
846.312	21588.1
847.473	21587.8
848.633	21588.7
849.793	21592.1
850.951	21599.8
852.111	21587.8
853.27	21569.4
854.428	21548
855.588	21522.1
856.747	21491
857.904	21461.4
859.063	21461.6
860.221	21454.3
861.378	21440.4
862.536	21431.2
863.694	21403.8
864.85	21363.4
866.008	21340.4
867.164	21332.5
868.321	21337.1
869.478	21351.9
870.633	21373.9
871.79	21379.5
872.945	21381.8
874.101	21358.2
875.256	21329.8
876.412	21300.5
877.566	21275.7
878.722	21253.7
879.876	21233.1
881.031	21213.4
882.185	21195.1
883.34	21176.8
884.493	21161.7
885.647	21131.1
886.8	21105.7
887.954	21084.1
889.107	21069.6
890.261	21075.8
891.413	21103.9
892.565	21102.3
893.718	21102.9
894.87	21098.7
896.023	21093.3
897.174	21086.5
898.326	21084.9
899.478	21083.6
900.629	21084.9
901.779	21087.6
902.931	21092.4
904.081	21098.8
905.231	21107
906.383	21115.6
907.532	21121
908.682	21124.9
909.831	21127
910.982	21126.6
912.131	21119.4
913.28	21110
914.429	21101.3
915.578	21096.1
916.727	21111.8
917.875	21132.5
919.023	21142.1
920.171	21145
921.32	21138.5
922.467	21134.8
923.614	21143.6
924.761	21148.3
925.908	21152.6
927.055	21157.4
928.203	21160.4
929.349	21159.7
930.496	21158.4
931.642	21155.9
932.787	21153
933.933	21149.9
935.079	21153.6
936.224	21154.1
937.369	21175
938.514	21169.1
939.659	21150.4
940.804	21123
941.948	21092.3
943.092	21068.9
944.236	21054.9
945.38	21056.5
946.524	21056.8
947.667	21053.3
948.811	21050.7
949.954	21047.1
951.097	21042
952.24	21035.2
953.383	21026.1
954.525	21015
955.667	21000.5
956.81	20980.2
957.952	20955.1
959.093	20931.6
960.235	20918.9
961.376	20920.8
962.516	20906.3
963.658	20871.8
964.798	20849.4
965.939	20833.1
967.08	20823.3
968.22	20831.1
969.359	20841.9
970.499	20850.6
971.639	20851.2
972.779	20843.9
973.918	20832.7
975.056	20818.6
976.195	20803.5
977.334	20791.6
978.473	20786.9
979.61	20790.5
980.749	20799.5
981.887	20809.1
983.024	20817.7
984.162	20826.9
985.3	20831.8
986.437	20835.1
987.573	20832.5
988.711	20827.3
989.848	20823.7
990.983	20824
992.12	20828.9
993.255	20835.8
994.392	20841.4
995.528	20843.2
996.662	20829.5
997.798	20812.8
998.933	20797
1000.07	20793.2
1001.2	20809.3
1002.34	20893.3
1003.47	20872
1004.61	20854.1
1005.74	20835.5
1006.87	20817.7
1008.01	20800.4
1009.14	20787.4
1010.27	20782.6
1011.41	20800
1012.54	20796.5
1013.67	20793.8
1014.81	20781.9
1015.94	20770.2
1017.07	20764.5
1018.2	20772.6
1019.33	20769.8
1020.47	20760.2
1021.6	20742.7
1022.73	20718.9
1023.86	20682.2
1024.99	20653.9
1026.12	20633
1027.25	20620.2
1028.38	20619.1
1029.51	20625.9
1030.64	20638.2
1031.77	20647.5
1032.9	20660.8
1034.03	20665.1
1035.16	20654.4
1036.29	20631.4
1037.42	20597.1
1038.55	20557.6
1039.67	20528.8
1040.8	20498.5
1041.93	20468.6
1043.06	20456.6
1044.19	20454.3
1045.31	20463.9
1046.44	20467.3
1047.57	20456.5
1048.69	20447
1049.82	20436.6
1050.95	20425.4
1052.08	20413.7
1053.2	20401.4
1054.33	20389.7
1055.45	20377.5
1056.58	20364.8
1057.7	20351.2
1058.83	20333.4
1059.95	20311.6
1061.08	20281.6
1062.2	20255.7
1063.33	20225.2
1064.45	20274.4
1065.58	20287.5
1066.7	20287.5
1067.83	20281.1
1068.95	20269.1
1070.07	20263.8
1071.2	20259.1
1072.32	20256.1
1073.44	20254.4
1074.56	20253.9
1075.69	20255.2
1076.81	20257.3
1077.93	20258.9
1079.05	20259.5
1080.17	20259.6
1081.3	20260.7
1082.42	20262.1
1083.54	20265.7
1084.66	20272.1
1085.78	20279.9
1086.9	20288.3
1088.02	20295.8
1089.14	20298.3
1090.26	20282.9
1091.38	20277.7
1092.5	20275.7
1093.62	20274.3
1094.74	20273.7
1095.86	20274.1
1096.98	20275.9
1098.1	20278.4
1099.22	20282.3
1100.34	20287.8
1101.45	20296.7
1102.57	20275.3
1103.69	20249.5
1104.81	20235.3
1105.93	20233.4
1107.04	20289.4
1108.16	20366.9
1109.28	20248.9
1110.4	20171.1
1111.51	20145.6
1112.63	20138
1113.75	20146.4
1114.86	20135.3
1115.98	20149.5
1117.09	20171.5
1118.21	20174.1
1119.32	20156.6
1120.44	20117.4
1121.55	20068.7
1122.67	20018.5
1123.78	19983
1124.9	19964.2
1126.01	19967.2
1127.13	19970.1
1128.24	19965.8
1129.35	19952
1130.47	19925.6
1131.58	19892.7
1132.7	19858.4
1133.81	19823.9
1134.92	19790.3
1136.03	19769.6
1137.15	19750.5
1138.26	19735.4
1139.37	19724.3
1140.48	19717.4
1141.59	19713.9
1142.71	19707.9
1143.82	19694.3
1144.93	19667.9
1146.04	19656.2
1147.15	19646.6
1148.26	19635.2
1149.37	19630.9
1150.48	19611.4
1151.59	19595.5
1152.7	19581.4
1153.81	19568.2
1154.92	19562.1
1156.03	19564.3
1157.14	19574
1158.25	19588.8
1159.36	19600.2
1160.47	19608
1161.58	19612
1162.68	19612
1163.79	19609
1164.9	19602.2
1166.01	19586.9
1167.12	19551.7
1168.22	19517
1169.33	19507.2
1170.44	19518.7
1171.55	19534.2
1172.65	19537.9
1173.76	19538.9
1174.87	19537.9
1175.97	19534.4
1177.08	19525.4
1178.18	19520.4
1179.29	19528.5
1180.4	19535.4
1181.5	19536.6
1182.61	19535.5
1183.71	19533.1
1184.82	19529.8
1185.92	19524.2
1187.02	19517.5
1188.13	19508.7
1189.23	19499.2
1190.34	19489.1
1191.44	19479.4
1192.54	19486.6
1193.65	19502.8
1194.75	19521.8
1195.85	19528.2
1196.96	19533.2
1198.06	19492.1
1199.16	19506.8
1200.26	19555.4
1201.37	19584
1202.47	19583.2
1203.57	19568.9
1204.67	19545.9
1205.77	19518.5
1206.87	19501.9
1207.97	19484.8
1209.08	19477.8
1210.18	19474.2
1211.28	19477.1
1212.38	19483.4
1213.48	19491.6
1214.58	19498.8
1215.68	19483
1216.78	19478.1
1217.88	19471
1218.98	19461.6
1220.07	19450.4
1221.17	19437.2
1222.27	19421.5
1223.37	19404.4
1224.47	19387.1
1225.57	19372
1226.66	19358.2
1227.76	19345.8
1228.86	19331.8
1229.96	19318.3
1231.06	19307.7
1232.15	19301
1233.25	19307.7
1234.35	19302.1
1235.44	19293.1
1236.54	19279.8
1237.63	19261.8
1238.73	19240.6
1239.83	19210.2
1240.92	19187.2
1242.02	19184
1243.11	19187.7
1244.21	19180.9
1245.3	19168.8
1246.4	19154.7
1247.49	19140.5
1248.59	19122
1249.68	19100.8
1250.78	19080.8
1251.87	19069.2
1252.96	19084
1254.06	19094.2
1255.15	19104.8
1256.24	19110.9
1257.34	19106.7
1258.43	19100.7
1259.52	19094.8
1260.62	19088.6
1261.71	19082.2
1262.8	19075.5
1263.89	19067.4
1264.98	19059
1266.08	19050.9
1267.17	19043.5
1268.26	19049.1
1269.35	19055.3
1270.44	19062.9
1271.53	19076.3
1272.62	19078.2
1273.71	19075.9
1274.8	19069
1275.89	19064
1276.98	19062.3
1278.07	19069.9
1279.16	19085
1280.25	19103.3
1281.34	19119.2
1282.43	19133.6
1283.52	19120.3
1284.61	19082.6
1285.69	19059.3
1286.78	19052
1287.87	19057.6
1288.96	19081.9
1290.05	19114.4
1291.13	19102
1292.22	19100
1293.31	19096.7
1294.4	19090.3
1295.48	19079.7
1296.57	19068.2
1297.66	19064.8
1298.74	19063.5
1299.83	19060
1300.92	19063.9
1302	19081.5
1303.09	19106.5
1304.17	19122.5
1305.26	19099
1306.34	19075.8
1307.43	19051.9
1308.51	19035
1309.6	19024.4
1310.68	19011.5
1311.76	19006.9
1312.85	19008.1
1313.93	19018.7
1315.02	19064.9
1316.1	19081.9
1317.18	19062
1318.27	19059.2
1319.35	19054.3
1320.43	19045.3
1321.52	19030.8
1322.6	19008.8
1323.68	18983.8
1324.76	18951.4
1325.85	18923.2
1326.93	18909.7
1328.01	18901.2
1329.09	18891.8
1330.17	18881.8
1331.25	18873.4
1332.33	18868.7
1333.41	18866
1334.49	18867.4
1335.58	18870.3
1336.65	18873.6
1337.74	18869.3
1338.82	18860.7
1339.89	18849
1340.97	18829.2
1342.05	18806.9
1343.13	18788.2
1344.21	18784.2
1345.29	18782.3
1346.37	18786.6
1347.45	18790.4
1348.53	18787.7
1349.6	18785.4
1350.68	18776.4
1351.76	18766.4
1352.84	18758.8
1353.92	18752.4
1354.99	18746.1
1356.07	18736.7
1357.15	18725.1
1358.22	18714.1
1359.3	18711.9
1360.38	18709.5
1361.45	18715.9
1362.53	18724.3
1363.61	18739.7
1364.68	18741.9
1365.76	18742.7
1366.83	18738.3
1367.91	18737.6
1368.98	18739.7
1370.06	18743
1371.13	18746.2
1372.21	18749.6
1373.28	18753.9
1374.35	18755.7
1375.43	18748.5
1376.5	18735.6
1377.58	18724.2
1378.65	18715.1
1379.72	18706.1
1380.8	18696.8
1381.87	18686.8
1382.94	18675.8
1384.01	18664
1385.09	18650.9
1386.16	18637.2
1387.23	18625.5
1388.3	18613.9
1389.38	18606.4
1390.45	18608.4
1391.52	18619.3
1392.59	18627.6
1393.66	18628.3
1393.92	18627.6
1395	18627
1396.07	18622.6
1397.15	18615.3
1398.22	18601.2
1399.3	18584.1
1400.38	18563.2
1401.45	18542.9
1402.53	18531.8
1403.6	18528.5
1404.68	18532.3
1405.75	18538.9
1406.82	18546.3
1407.9	18554.8
1408.97	18556
1410.05	18539.4
1411.12	18523.9
1412.19	18505
1413.27	18480.8
1414.34	18453.2
1415.41	18432.3
1416.49	18414.8
1417.56	18422.7
1418.63	18423.6
1419.7	18423.8
1420.78	18424.8
1421.85	18431.3
1422.92	18428.7
1423.99	18422.3
1425.06	18414.6
1426.14	18406.1
1427.21	18396.9
1428.28	18387
1429.35	18377.2
1430.42	18368.4
1431.49	18362.5
1432.56	18358.5
1433.63	18350.1
1434.7	18339
1435.77	18325.5
1436.84	18315.1
1437.91	18304.7
1438.98	18295.9
1440.05	18301.6
1441.12	18304.8
1442.18	18307.3
1443.25	18307
1444.32	18301
1445.39	18281
1446.46	18261.3
1447.53	18250.9
1448.59	18246.6
1449.66	18247.1
1450.73	18255.8
1451.8	18263.9
1452.86	18263.1
1453.93	18258
1455	18253.1
1456.06	18238.7
1457.13	18219.1
1458.2	18215.1
1459.26	18217.9
1460.33	18227.5
1461.39	18237.6
1462.46	18239
1463.52	18238.4
1464.59	18234
1465.65	18227.1
1466.72	18215.8
1467.78	18203.5
1468.85	18193
1469.91	18185.2
1470.98	18183.4
1472.04	18182.3
1473.1	18185
1474.17	18189.7
1475.23	18197.7
1476.3	18207.9
1477.36	18218.6
1478.42	18227.9
1479.48	18230.8
1480.55	18230.9
1481.61	18227.3
1482.67	18208.2
1483.73	18175.4
1484.8	18144.3
1485.86	18147.1
1486.92	18157.5
1487.98	18189.1
1489.04	18190.7
1490.1	18189.2
1491.17	18179.9
1492.23	18128.5
1493.29	18113.1
1494.35	18103.4
1495.41	18093.4
1496.47	18091.5
1497.53	18090.8
1498.59	18090.4
1499.65	18083.5
1500.71	18075.8
1501.77	18061.5
1502.83	18033.2
1503.88	18019.3
1504.94	18010
1506	18000.1
1507.06	17994.9
1508.12	17990.3
1509.18	17980.6
1510.23	17967.9
1511.29	17951
1512.35	17913.2
1513.41	17874.4
1514.47	17890.1
1515.52	17910.1
1516.58	17923.4
1517.64	17921.3
1518.69	17902.2
1519.75	17871
1520.81	17859.7
1521.86	17852.4
1522.92	17847.3
1523.97	17861.7
1525.03	17864.7
1526.08	17859
1527.14	17851.5
1528.2	17842
1529.25	17832.4
1530.31	17822.7
1531.36	17811.2
1532.42	17799.3
1533.47	17786.6
1534.52	17773.4
1535.58	17760.1
1536.63	17747.5
1537.69	17739.9
1538.74	17732.8
1539.79	17732.9
1540.84	17736.2
1541.9	17744.1
1542.95	17754.6
1544	17761.4
1545.06	17764.4
1546.11	17755.6
1547.16	17750.1
1548.21	17743.5
1549.27	17733.8
1550.32	17721.6
1551.37	17707.2
1552.42	17698.2
1553.47	17695.4
1554.52	17698.1
1555.57	17708.5
1556.62	17710.5
1557.67	17713.1
1558.72	17714.3
1559.77	17713.4
1560.82	17708.8
1561.87	17704.1
1562.92	17702.7
1563.97	17707.3
1565.02	17716.6
1566.07	17717.4
1567.12	17711.3
1568.17	17703.3
1569.22	17691.7
1570.27	17678.4
1571.32	17659.7
1572.36	17649.1
1573.41	17648.9
1574.46	17658.7
1575.51	17675.3
1576.56	17655.2
1577.6	17634.3
1578.65	17623.4
1579.7	17626.2
1580.74	17642.7
1581.79	17648.8
1582.84	17655.5
1583.88	17667.2
1584.93	17677.9
1585.98	17658.1
1587.02	17624.7
1588.07	17598.2
1589.11	17576.9
1590.16	17559.2
1591.2	17528.7
1592.25	17523.9
1593.29	17547.8
1594.34	17600.8
1595.38	17625.2
1596.43	17645
1597.47	17495.9
1598.52	17508.7
1599.56	17488.1
1600.6	17532.9
1601.65	17523.3
1602.69	17509.4
1603.73	17459.6
1604.78	17419.5
1605.82	17398.7
1606.86	17379.8
1607.91	17373.1
1608.95	17361.3
1609.99	17351.9
1611.03	17347.4
1612.08	17344.8
1613.12	17345.8
1614.16	17348.8
1615.2	17350.1
1616.24	17349.5
1617.28	17336.1
1618.32	17323.1
1619.36	17300.1
1620.41	17271.5
1621.45	17243.6
1622.49	17215.9
1623.53	17195.2
1624.57	17176.5
1625.61	17160.9
1626.65	17148.8
1627.69	17139.9
1628.73	17134.6
1629.76	17132.9
1630.8	17135.3
1631.84	17145.7
1632.88	17148.7
1633.92	17133.4
1634.96	17101.6
1636	17054.4
1637.03	17002.4
1638.07	17003.6
1639.11	17004.5
1640.15	17012.6
1641.19	17024.2
1642.22	17040.2
1643.26	17042.3
1644.3	17034.8
1645.33	17013
1646.37	16985.6
1647.41	16969.5
1648.44	16961.1
1649.48	16955.1
1650.52	16946.7
1651.55	16940.5
1652.59	16936.8
1653.62	16936
1654.66	16940.3
1655.69	16949.3
1656.73	16957.5
1657.76	16952.4
1658.8	16940.4
1659.83	16921
1660.87	16890.6
1661.9	16866
1662.93	16853
1663.97	16854.2
1665	16857.3
1666.04	16854.6
1667.07	16850.8
1668.1	16840
1669.14	16835.8
1670.17	16831.4
1671.2	16827
1672.23	16822.8
1673.27	16818.7
1674.3	16815.9
1675.33	16811
1676.36	16803.7
1677.39	16801.3
1678.43	16805.5
1679.46	16835.3
1680.49	16836.5
1681.52	16831.8
1682.55	16814.2
1683.58	16800.2
1684.61	16786.2
1685.64	16773.5
1686.67	16758.8
1687.7	16744
1688.73	16729.2
1689.76	16712.3
1690.79	16694.7
1691.82	16676.2
1692.85	16658.8
1693.88	16659.2
1694.91	16666.2
1695.94	16671.4
1696.97	16673.5
1698	16672
1699.02	16655.7
1700.05	16629.2
1701.08	16610.5
1702.11	16588.8
1703.14	16574.7
1704.16	16572.1
1705.19	16577.5
1706.22	16575.9
1707.25	16560.9
1708.27	16545.1
1709.3	16529.6
1710.33	16514.1
1711.35	16499.4
1712.38	16485.4
1713.41	16472
1714.43	16459
1715.46	16446.6
1716.48	16435
1717.51	16424.6
1718.53	16423.6
1719.56	16438.4
1720.58	16433.5
1721.61	16415
1722.63	16394.6
1723.66	16380.2
1724.68	16369.8
1725.71	16360.2
1726.73	16356.1
1727.75	16355.3
1728.78	16357.8
1729.8	16360.9
1730.83	16362.7
1731.85	16356.8
1732.87	16345.3
1733.89	16330.8
1734.92	16312.1
1735.94	16289.6
1736.96	16262.6
1737.98	16233.4
1739.01	16208.7
1740.03	16199.8
1741.05	16194.8
1742.07	16198.2
1743.09	16201.4
1744.12	16252.4
1745.14	16195.3
1746.16	16158.2
1747.18	16145.6
1748.2	16141.6
1749.22	16138.5
1750.24	16144.1
1751.26	16159.5
1752.28	16120.1
1753.3	16093.1
1754.32	16078.1
1755.34	16065.6
1756.36	16057.9
1757.38	16065.4
1758.4	16075.4
1759.42	16083.6
1760.44	16094.4
1761.45	16102.3
1762.47	16092.3
1763.49	16073.6
1764.51	16057.8
1765.53	16041.2
1766.55	16021.2
1767.56	16001.2
1768.58	15979.8
1769.6	15958.9
1770.61	15940.3
1771.63	15925.1
1772.65	15920.6
1773.67	15920.5
1774.68	15925.2
1775.7	15932.7
1776.72	15942.3
1777.73	15945
1778.75	15932.2
1779.76	15919
1780.78	15902.4
1781.79	15883.6
1782.81	15859.9
1783.83	15843.3
1784.84	15829.1
1785.85	15824.6
1786.87	15816.7
1787.88	15821.5
1788.9	15824.1
1789.91	15826.3
1790.93	15827.4
1791.94	15826.9
1792.95	15823.9
1793.97	15815.9
1794.98	15803
1796	15781.4
1797.01	15755.8
1798.02	15732.2
1799.03	15710.8
1800.05	15691.6
1801.06	15675.8
1802.07	15666.9
1803.08	15659.9
1804.1	15649.3
1805.11	15639.4
1806.12	15630.6
1807.13	15615.8
1808.14	15610.8
1809.15	15611.2
1810.17	15608.1
1811.18	15602.1
1812.19	15588.2
1813.2	15565.1
1814.21	15538.3
1815.22	15523.5
1816.23	15538
1817.24	15540.7
1818.25	15524.4
1819.26	15506.1
1820.27	15482
1821.28	15455.2
1822.29	15427.9
1823.3	15403.7
1824.3	15391.4
1825.31	15380.2
1826.32	15372.2
1827.33	15367
1828.34	15365.2
1829.35	15366.6
1830.35	15370.7
1831.36	15377.1
1832.37	15381
1833.38	15373.5
1834.38	15367.5
1835.39	15369.4
1836.4	15348.3
1837.41	15326.7
1838.41	15304.7
1839.42	15282.3
1840.43	15260.6
1841.43	15244.3
1842.44	15228.6
1843.44	15215.3
1844.45	15203.8
1845.46	15195.1
1846.46	15182.9
1847.47	15164.5
1848.47	15147.5
1849.48	15129.2
1850.48	15117
1851.49	15101.3
1852.49	15100.5
1853.49	15100.8
1854.5	15104.3
1855.5	15103.4
1856.51	15098.7
1857.51	15093.6
1858.51	15086.6
1859.52	15077.6
1860.52	15066.8
1861.52	15054.2
1862.53	15040.2
1863.53	15027.3
1864.53	15018.2
1865.54	15009.3
1866.54	14988.8
1867.54	14963.9
1868.54	14946.9
1869.54	14930.6
1870.55	14916.4
1871.55	14903.4
1872.55	14895.2
1873.55	14887.8
1874.55	14882
1875.55	14870.9
1876.55	14843.1
1877.55	14830.5
1878.55	14839.7
1879.55	14842.1
1880.56	14839.6
1881.55	14833.2
1882.56	14824.7
1883.55	14807
1884.55	14780.8
1885.55	14747.4
1886.55	14726.5
1887.55	14723.9
1888.55	14721.3
1889.55	14715.5
1890.55	14711.9
1891.55	14705.6
1892.55	14699.4
1893.54	14693
1894.54	14686.5
1895.54	14681.4
1896.54	14676.1
1897.54	14670.8
1898.53	14663.4
1899.53	14654.6
1900.53	14643.6
1901.52	14629.3
1902.52	14613
1903.52	14595.2
1904.51	14575.6
1905.51	14561.9
1906.51	14548.5
1907.5	14538.1
1908.5	14521.8
1909.49	14501.4
1910.49	14482.9
1911.49	14466.2
1912.48	14452.5
1913.48	14440.8
1914.47	14435.9
1915.46	14434.9
1916.46	14436.8
1917.45	14439
1918.45	14439.7
1919.44	14437.8
1920.44	14427.6
1921.43	14416
1922.43	14401.3
1923.42	14381.4
1924.41	14360.8
1925.41	14340.4
1926.4	14321.7
1927.39	14303.8
1928.38	14287
1929.38	14271
1930.37	14256.3
1931.36	14242.5
1932.35	14231
1933.35	14224.2
1934.34	14220.4
1935.33	14219.5
1936.32	14220.4
1937.31	14216.8
1938.3	14213.4
1939.29	14212.8
1940.29	14209.8
1941.28	14195.1
1942.27	14178.7
1943.26	14159.9
1944.25	14140
1945.24	14120
1946.23	14099.8
1947.22	14078.4
1948.21	14056.6
1949.2	14034.8
1950.19	14013.8
1951.18	13995.9
1952.17	13979.1
1953.16	13968.3
1954.14	13963.8
1955.13	13969.2
1956.12	13970.1
1957.11	13965.1
1958.1	13955.4
1959.09	13946.2
1960.07	13934.4
1961.06	13921.6
1962.05	13907.3
1963.04	13892.1
1964.02	13881
1965.01	13872.7
1966	13863
1966.99	13848.2
1967.97	13832.6
1968.96	13817.1
1969.95	13806
1970.93	13796.4
1971.92	13789.3
1972.9	13783.6
1973.89	13780.6
1974.88	13779.7
1975.86	13779.6
1976.85	13778.5
1977.83	13771.9
1978.82	13762.3
1979.8	13748.6
1980.79	13729.8
1981.77	13709.5
1982.76	13688.5
1983.74	13669.8
1984.72	13654.9
1985.71	13646
1986.69	13639.1
1987.67	13634.7
1988.66	13630.8
1989.64	13627.1
1990.62	13621.8
1991.61	13614.5
1992.59	13607
1993.57	13598.5
1994.56	13589.1
1995.54	13579.2
1996.52	13569.1
1997.5	13560.4
1998.49	13551.8
1999.47	13539.6
2000.45	13520.5
2001.43	13509.4
2002.41	13502
2003.39	13492.8
2004.38	13482.4
2005.36	13470.5
2006.34	13456.6
2007.32	13441.1
2008.3	13414.1
2009.28	13374.3
2010.26	13354.7
2011.24	13370.8
2012.22	13382.1
2013.2	13391.9
2014.18	13335.1
2015.16	13281.4
2016.14	13239.2
2017.12	13256.2
2018.1	13266.8
2019.07	13276.4
2020.05	13284.9
2021.03	13294.4
2022.01	13295.8
2022.99	13275.3
2023.97	13250.3
2024.95	13218.3
2025.92	13197.8
2026.9	13181.1
2027.88	13174.9
2028.86	13169
2029.83	13163.2
2030.81	13156.3
2031.79	13147.6
2032.76	13138
2033.74	13127.7
2034.72	13114.8
2035.69	13098.3
2036.67	13079.6
2037.65	13060
2038.62	13038.6
2039.6	13019.2
2040.57	13010.9
2041.55	12995
2042.52	13009.6
2043.5	13052.6
2044.47	13071.5
2045.45	13053.8
2046.42	13021.1
2047.4	12975.7
2048.37	12944.6
2049.35	12918
2050.32	12902.6
2051.29	12891.9
2052.27	12882.5
2053.24	12878.1
2054.21	12876.3
2055.19	12873.5
2056.16	12873.9
2057.13	12866.9
2058.11	12860.2
2059.08	12857.2
2060.05	12838.1
2061.02	12801.2
2062	12758.7
2062.97	12740.5
2063.94	12766.9
2064.91	12760.3
2065.89	12749.7
2066.86	12740.4
2067.83	12724.6
2068.8	12709.6
2069.77	12698.8
2070.74	12687.8
2071.71	12677.2
2072.68	12667
2073.65	12656.8
2074.62	12645.8
2075.59	12634.3
2076.56	12623.2
2077.53	12611.6
2078.5	12599.6
2079.47	12587.1
2080.44	12573.6
2081.41	12559
2082.38	12529.4
2083.35	12519.1
2084.32	12509.8
2085.29	12516
2086.26	12529.7
2087.23	12519
2088.19	12496.7
2089.16	12464.8
2090.13	12442
2091.1	12424.4
2092.07	12412.6
2093.03	12406.4
2094	12405.3
2094.97	12393.6
2095.94	12381.9
2096.9	12368.9
2097.87	12356.1
2098.84	12340.9
2099.8	12335.9
2100.77	12350.6
2101.74	12333.4
2102.7	12304.8
2103.67	12276.8
2104.63	12254.8
2105.6	12240.6
2106.56	12228.3
2107.53	12218.2
2108.49	12210
2109.46	12204.5
2110.42	12200.8
2111.39	12194.9
2112.35	12187.2
2113.32	12174.6
2114.28	12158.7
2115.25	12141
2116.21	12117.7
2117.17	12106.7
2118.14	12106.9
2119.1	12109.6
2120.07	12116.8
2121.03	12127.7
2121.99	12112.4
2122.96	12093.1
2123.92	12080.2
2124.88	12067.1
2125.84	12055.1
2126.81	12046.8
2127.77	12039.6
2128.73	12034.8
2129.69	12031.4
2130.65	12029
2131.62	12025.8
2132.58	12019
2133.54	12001.8
2134.5	11969.1
2135.46	11940.8
2136.42	11916
2137.38	11891.9
2138.34	11875.9
2139.3	11869
2140.26	11865.7
2141.22	11857
2142.18	11846.2
2143.14	11832.8
2144.1	11816.7
2145.06	11809.4
2146.02	11802.9
2146.98	11797.3
2147.94	11796.7
2148.9	11797
2149.86	11801.6
2150.82	11804.7
2151.78	11804.5
2152.74	11798.1
2153.69	11781
2154.65	11759
2155.61	11735.1
2156.57	11713.3
2157.53	11695
2158.48	11683.7
2159.44	11672.4
2160.4	11664.7
2161.36	11656.3
2162.31	11638.9
2163.27	11620
2164.23	11600.2
2165.18	11578.3
2166.14	11561.1
2167.1	11545.3
2168.05	11532
2169.01	11515.4
2169.96	11499.5
2170.92	11483.2
2171.88	11465.9
2172.83	11448
2173.79	11429.3
2174.74	11408.7
2175.7	11386.2
2176.65	11361.7
2177.6	11337.3
2178.56	11313.2
2179.51	11292.4
2180.47	11292.4
2181.42	11288.9
2182.38	11289.4
2183.33	11286.7
2184.28	11284.9
2185.24	11266.8
2186.19	11247.4
2187.14	11224.7
2188.1	11206.5
2189.05	11190.9
2190	11178
2190.96	11167.3
2191.91	11158.9
2192.86	11153.1
2193.81	11149.7
2194.76	11149
2195.72	11151
2196.67	11151
2197.62	11132.1
2198.57	11112.6
2199.52	11101.9
2200.47	11092.9
2201.43	11084.6
2202.38	11070.9
2203.33	11055.1
2204.28	11041.2
2205.23	11029.1
2206.18	11019.6
2207.13	11012.1
2208.08	11012.7
2209.03	11013.7
2209.98	11007.1
2210.93	10996.4
2211.88	10982
2212.83	10964.2
2213.78	10946.3
2214.73	10927
2215.67	10908.8
2216.62	10896.7
2217.57	10884.7
2218.52	10879.1
2219.47	10876.3
2220.42	10877.8
2221.37	10882.3
2222.31	10889.1
2223.26	10897.7
2224.21	10892.1
2225.16	10887.7
2226.1	10880.6
2227.05	10871.5
2228	10859.1
2228.94	10843.5
2229.89	10828.6
2230.84	10812.4
2231.78	10795.7
2232.73	10779.3
2233.68	10765.8
2234.62	10774
2235.57	10791.3
2236.51	10801.8
2237.46	10807.1
2238.41	10807.8
2239.35	10787
2240.3	10777.5
2241.24	10768.3
2242.19	10760.9
2243.13	10752.6
2244.07	10744.9
2245.02	10741.9
2245.96	10736.7
2246.91	10728.1
2247.85	10719.8
2248.8	10703.9
2249.74	10688.9
2250.68	10679.8
2251.63	10674.2
2252.57	10670.7
2253.51	10666.8
2254.46	10664.4
2255.4	10665.5
2256.34	10664.3
2257.28	10662.8
2258.23	10665
2259.17	10664.6
2260.11	10662.9
2261.05	10657.5
2262	10651.5
2262.94	10645.7
2263.88	10640.5
2264.82	10635.6
2265.76	10629.7
2266.7	10623.3
2267.64	10615.2
2268.58	10602.4
2269.53	10593.3
2270.47	10589.8
2271.41	10583.8
2272.35	10588.2
2273.29	10591.3
2274.23	10595.1
2275.17	10601.8
2276.11	10608.2
2277.05	10612.2
2277.99	10611.1
2278.93	10598.3
2279.86	10580.9
2280.8	10565.1
2281.74	10550.1
2282.68	10537.8
2283.62	10530.8
2284.56	10525.2
2285.5	10521.9
2286.44	10522.1
2287.37	10520.4
2288.31	10512.6
2289.25	10511.8
2290.19	10521
2291.12	10529.5
2292.06	10534.9
2293	10528.2
2293.94	10514.5
2294.87	10495.7
2295.81	10482.9
2296.75	10474.4
2297.68	10467.9
2298.62	10462
2299.55	10459.2
2300.49	10458.9
2301.43	10461.9
2302.36	10468.4
2303.3	10474.2
2304.23	10447.4
2305.17	10413.3
2306.1	10395.3
2307.04	10383.6
2307.98	10373.5
2308.91	10364.7
2309.84	10357.2
2310.78	10350.8
2311.71	10344.7
2312.65	10338.9
2313.58	10330.7
2314.52	10321.5
2315.45	10314.7
2316.38	10314.1
2317.32	10323.4
2317.72	10329.4
2318.66	10327.4
2319.6	10320.5
2320.54	10309.2
2321.48	10296.7
2322.41	10284.7
2323.35	10273.8
2324.29	10262.7
2325.23	10251.2
2326.16	10238.8
2327.1	10224.8
2328.04	10209.2
2328.97	10186
2329.91	10163.5
2330.85	10140.9
2331.78	10118.9
2332.72	10113.4
2333.66	10108.1
2334.59	10109.2
2335.53	10107
2336.46	10104.3
2337.4	10104.6
2338.33	10102.6
2339.27	10098.6
2340.2	10093.2
2341.14	10086.2
2342.07	10078.5
2343.01	10069.2
2343.94	10058.1
2344.88	10045
2345.81	10020.5
2346.75	10016.9
2347.68	10011.6
2348.61	10002.8
2349.55	9987.41
2350.48	9969.56
2351.41	9949.57
2352.35	9930.47
2353.28	9921.84
2354.21	9923.88
2355.15	9924.31
2356.08	9935.15
2357.01	9943.02
2357.94	9950.38
2358.88	9965.96
2359.81	9970.86
2360.74	9969.31
2361.67	9962.39
2362.6	9954.9
2363.54	9936.23
2364.47	9922.72
2365.4	9901.81
2366.33	9893.74
2367.26	9890.28
2368.19	9895.5
2369.12	9898.3
2370.05	9895.01
2370.98	9887.79
2371.91	9877.31
2372.84	9864.27
2373.77	9850.37
2374.7	9833.79
2375.63	9815.62
2376.56	9797.65
2377.49	9781.54
2378.42	9771.33
2379.35	9770.1
2380.28	9777.11
2381.21	9772.25
2382.14	9762.46
2383.07	9747.2
2384	9739.27
2384.92	9732.2
2385.85	9729.35
2386.78	9729.79
2387.71	9733.16
2388.64	9738.24
2389.56	9743.83
2390.49	9744.16
2391.42	9730.32
2392.35	9717.01
2393.27	9704.45
2394.2	9689.63
2395.13	9678.25
2396.05	9670.2
2396.98	9665.4
2397.91	9662.62
2398.83	9663.29
2399.76	9664.36
2400.69	9665.52
2401.61	9665.61
2402.54	9661.44
2403.46	9654.53
2404.39	9645.96
2405.31	9635.34
2406.24	9622.39
2407.17	9607.95
2408.09	9596.47
2409.01	9587.62
2409.94	9582.37
2410.86	9583.24
2411.79	9583.11
2412.71	9580.12
2413.64	9573.26
2414.56	9559.35
2415.49	9543.84
2416.41	9533.83
2417.33	9521.08
2418.26	9522.13
2419.18	9533.64
2420.1	9546.47
2421.03	9544.73
2421.95	9528.59
2422.87	9498.82
2423.79	9459.57
2424.72	9441.33
2425.64	9460.03
2426.56	9450.38
2427.48	9442.94
2428.41	9437.58
2429.33	9430.83
2430.25	9423.94
2431.17	9413.15
2432.09	9403.92
2433.01	9396.45
2433.93	9396.64
2434.86	9367.19
2435.78	9318.8
2436.7	9323.02
2437.62	9330.95
2438.54	9332.92
2439.46	9321.93
2440.38	9290.45
2441.3	9275.95
2442.22	9264.5
2443.14	9255.56
2444.06	9245.01
2444.98	9235.46
2445.9	9229.28
2446.82	9219.71
2447.73	9209.64
2448.65	9198.77
2449.57	9188.49
2450.49	9180.11
2451.41	9173.11
2452.33	9170.44
2453.25	9159.76
2454.17	9151.07
2455.08	9142.71
2456	9133.87
2456.92	9125.03
2457.84	9115.53
2458.75	9107.47
2459.67	9100.43
2460.59	9093.99
2461.51	9088.36
2462.42	9079.87
2463.34	9071.38
2464.26	9062.5
2465.17	9053.14
2466.09	9043.14
2467	9032.54
2467.92	9022.21
2468.84	9012.85
2469.75	9008.01
2470.67	9005.06
2471.58	9006.48
2472.5	9002.4
2473.42	8999.3
2474.33	8992.25
2475.25	8983.62
2476.16	8973.96
2477.08	8963.45
2477.99	8952.46
2478.9	8941.23
2479.82	8931.71
2480.73	8921.46
2481.65	8910.36
2482.56	8904.39
2483.47	8904.61
2484.39	8911.65
2485.3	8920.92
2486.22	8929.01
2487.13	8930.32
2488.04	8928.47
2488.96	8924.55
2489.87	8918.13
2490.78	8910.33
2491.69	8898.23
2492.61	8886.27
2493.52	8874.25
2494.43	8862.95
2495.34	8853.58
2496.25	8845.52
2497.17	8838.32
2498.08	8832.49
2498.99	8827.84
2499.9	8825.83
2500.81	8834.89
2501.72	8841.93
2502.63	8838.61
2503.55	8830.55
2504.46	8748.78
2505.37	8753.52
2506.28	8760.68
2507.19	8758.43
2508.1	8757.74
2509.01	8755.93
2509.92	8761.41
2510.83	8765.14
2511.74	8764.87
2512.65	8760.06
2513.56	8751.95
2514.47	8741.97
2515.37	8729.56
2516.28	8715.65
2517.19	8703.56
2518.1	8707.38
2519.01	8707.81
2519.92	8704.32
2520.83	8698.61
2521.73	8690.66
2522.64	8682.84
2523.55	8676.61
2524.46	8668.92
2525.37	8661.1
2526.27	8652.99
2527.18	8644.69
2528.09	8636.25
2529	8628.03
2529.9	8619.84
2530.81	8611.81
2531.72	8605.07
2532.62	8602.34
2533.53	8603.54
2534.44	8605.08
2535.34	8601
2536.25	8596.38
2537.15	8590.19
2538.06	8580.47
2538.96	8564.01
2539.87	8548.72
2540.78	8531.72
2541.68	8524.65
2542.59	8517.59
2543.49	8511.74
2544.4	8521.69
2545.3	8514.21
2546.21	8504.68
2547.11	8492.79
2548.01	8480
2548.92	8469.08
2549.82	8458.09
2550.73	8446.2
2551.63	8434.95
2552.53	8423.82
2553.44	8416.18
2554.34	8416.52
2555.24	8409.79
2556.15	8403.81
2557.05	8396.49
2557.95	8392.3
2558.86	8388.25
2559.76	8384.64
2560.66	8381.61
2561.56	8379.22
2562.46	8377.75
2563.37	8374.2
2564.27	8361.16
2565.17	8348.91
2566.07	8328.25
2566.97	8313.01
2567.88	8300.41
2568.78	8288.53
2569.68	8284.53
2570.58	8275.22
2571.48	8267.92
2572.38	8254.67
2573.28	8241.55
2574.18	8228.21
2575.08	8213.58
2575.98	8209.16
2576.88	8212.17
2577.78	8216.2
2578.68	8217.53
2579.58	8201.22
2580.48	8181.7
2581.38	8155.99
2582.28	8148.61
2583.18	8137.67
2584.08	8127.25
2584.98	8132.47
2585.88	8134.33
2586.77	8128.46
2587.67	8117.57
2588.57	8104.02
2589.47	8092.44
2590.37	8081.86
2591.27	8071.57
2592.16	8063.4
2593.06	8056.57
2593.96	8051.3
2594.86	8047.9
2595.75	8046
2596.65	8045.57
2597.55	8045.55
2598.45	8041
2599.34	8026.55
2600.24	8013.84
2601.13	8012.52
2602.03	8017.83
2602.93	8014.13
2603.82	8013.51
2604.72	8004.36
2605.62	7988.61
2606.51	7950.74
2607.41	7923.87
2608.3	7918.94
2609.2	7921.19
2610.09	7932.56
2610.99	7934.63
2611.88	7922.09
2612.78	7909.95
2613.67	7897.16
2614.57	7883.01
2615.46	7871.64
2616.36	7862.29
2617.25	7854.97
2618.14	7849.63
2619.04	7846.8
2619.93	7845.88
2620.83	7840.49
2621.72	7830.21
2622.61	7822.67
2623.5	7818.8
2624.4	7817.35
2625.29	7817.02
2626.18	7817
2627.08	7817.94
2627.97	7818.01
2628.86	7819.81
2629.75	7810.05
2630.65	7800.32
2631.54	7784.53
2632.43	7774.5
2633.32	7770.18
2634.21	7766.5
2635.11	7754.51
2636	7740.73
2636.89	7726.05
2637.78	7708.76
2638.67	7691.34
2639.56	7675.11
2640.45	7660.24
2641.34	7648.69
2642.23	7638.33
2643.12	7629.62
2644.01	7623.1
2644.9	7618.31
2645.79	7615.33
2646.68	7612.33
2647.57	7603.31
2648.46	7582.63
2649.35	7560.55
2650.24	7544.85
2651.13	7529.81
2652.02	7517.04
2652.91	7510.32
2653.8	7508.27
2654.69	7503.14
2655.58	7495.3
2656.46	7488.96
2657.35	7483.66
2658.24	7479.61
2659.13	7476.63
2660.02	7474.86
2660.9	7476.28
2661.79	7477.71
2662.68	7477.45
2663.57	7465.06
2664.45	7452.75
2665.34	7441.14
2666.23	7430.26
2667.11	7422.25
2668	7428.52
2668.89	7440.44
2669.77	7444.46
2670.66	7437.96
2671.55	7428.63
2672.43	7415.16
2673.32	7395.58
2674.21	7375.33
2675.09	7355.5
2675.98	7338.93
2676.86	7325.65
2677.75	7315.95
2678.63	7308.03
2679.52	7302.96
2680.4	7300.04
2681.29	7299.77
2682.17	7300.02
2683.06	7300.61
2683.94	7299.42
2684.82	7292.56
2685.71	7284.06
2686.59	7271.35
2687.48	7257.63
2688.36	7240.5
2689.24	7221.25
2690.13	7198.94
2691.01	7179.82
2691.89	7174.27
2692.78	7168.88
2693.66	7174.81
2694.54	7169.92
2695.43	7164.76
2696.31	7157.91
2697.19	7149.93
2698.07	7139.8
2698.96	7131.53
2699.84	7135.11
2700.72	7134.82
2701.6	7143.13
2702.48	7143.94
2703.36	7134.27
2704.25	7126.87
2705.13	7119.58
2706.01	7112.41
2706.89	7105.16
2707.77	7098.02
2708.65	7090.63
2709.53	7082.49
2710.41	7072.2
2711.29	7059.52
2712.17	7043.46
2713.05	7029.86
2713.93	7016.8
2714.81	7012.14
2715.69	7009.26
2716.57	7008.2
2717.45	7008.67
2718.33	7007.8
2719.21	6997.55
2720.09	6975.56
2720.97	6963.8
2721.85	6961.09
2722.73	6970.35
2723.61	6983.24
2724.48	6989.82
2725.36	6979.46
2726.24	6962.65
2727.12	6935.95
2728	6922.91
2728.88	6911.68
2729.75	6901.34
2730.63	6892.75
2731.51	6887.21
2732.39	6883.74
2733.26	6880.13
2734.14	6871.2
2735.02	6854.04
2735.89	6845.03
2736.77	6844.84
2737.65	6843.7
2738.52	6845.84
2739.4	6851.56
2740.28	6858.24
2741.15	6863.93
2742.03	6859.76
2742.9	6848.34
2743.78	6830.78
2744.65	6820.06
2745.53	6811.35
2746.41	6804.64
2747.28	6800.18
2748.16	6809.87
2749.03	6818.68
2749.91	6814.67
2750.78	6807.5
2751.66	6801.04
2752.53	6791.35
2753.4	6782.95
2754.28	6774.7
2755.15	6767.21
2756.02	6760.4
2756.9	6754.37
2757.77	6749.22
2758.65	6745.14
2759.52	6741.6
2760.39	6738.6
2761.27	6734.72
2762.14	6729.67
2763.01	6723.32
2763.88	6716.76
2764.76	6710.78
2765.63	6703.98
2766.5	6696.99
2767.37	6686.75
2768.25	6673.82
2769.12	6659.96
2769.99	6645.21
2770.86	6629.08
2771.73	6613.07
2772.61	6602.97
2773.48	6595.21
2774.35	6599.06
2775.22	6600.57
2776.09	6598.52
2776.96	6596.35
2777.83	6594.47
2778.7	6586.32
2779.57	6580.86
2780.44	6578.05
2781.31	6574.62
2782.18	6569.43
2783.05	6560.12
2783.92	6542.2
2784.79	6521.29
2785.66	6505.12
2786.53	6495.05
2787.4	6479.45
2788.27	6554.52
2789.14	6557.09
2790.01	6536.65
2790.88	6526.79
2791.75	6516.25
2792.62	6505.84
2793.48	6495.33
2794.35	6484.59
2795.22	6474.01
2796.09	6463.97
2796.96	6454.15
2797.82	6444.7
2798.69	6435.26
2799.56	6426.99
2800.43	6425.9
2801.29	6437.91
2802.16	6446.31
2803.03	6459.93
2803.9	6464.67
2804.76	6460.9
2805.63	6448.6
2806.5	6426.87
2807.36	6408.06
2808.23	6393.64
2809.09	6385.38
2809.96	6374.67
2810.83	6369.38
2811.69	6366.08
2812.56	6357.41
2813.42	6346.38
2814.29	6330.95
2815.15	6323.46
2816.02	6320.79
2816.88	6322.95
2817.75	6325.37
2818.61	6325.43
2819.48	6322.67
2820.34	6317.08
2821.21	6308.45
2822.07	6297.91
2822.94	6284.66
2823.8	6268.85
2824.66	6249.83
2825.53	6245.39
2826.39	6239.96
2827.26	6238.54
2828.12	6241.99
2828.98	6246.06
2829.85	6249
2830.71	6250.34
2831.57	6245.17
2832.43	6239.73
2833.3	6231.75
2834.16	6222.28
2835.02	6210.58
2835.88	6200.56
2836.75	6202.87
2837.61	6207.03
2838.47	6209.09
2839.33	6211.56
2840.19	6211.75
2841.06	6206.63
2841.92	6200.04
2842.78	6192.17
2843.64	6182.65
2844.5	6171.97
2845.36	6160.16
2846.22	6148.23
2847.08	6134.95
2847.94	6131.02
2848.81	6150.87
2849.67	6178.27
2850.53	6196.72
2851.39	6153.69
2852.25	6120.14
2853.11	6104.89
2853.97	6100.29
2854.82	6101.46
2855.68	6106.87
2856.54	6114.12
2857.4	6108.18
2858.26	6106.13
2859.12	6084.9
2859.98	6059.65
2860.84	6043.54
2861.7	6035.28
2862.56	6035.03
2863.41	6043
2864.27	6050.35
2865.13	6055.66
2865.99	6043.65
2866.85	6038.3
2867.7	6029.96
2868.56	6018.83
2869.42	6005.07
2870.28	5990.13
2871.13	5984.69
2871.99	5987.58
2872.85	5986.2
2873.7	5997.91
2874.56	6000.97
2875.42	5995.56
2876.27	5981.94
2877.13	5961.72
2877.99	5950.9
2878.84	5939.78
2879.7	5938.7
2880.56	5944.04
2881.41	5954.92
2882.27	5970.22
2883.12	5969.63
2883.98	5957.72
2884.83	5938.31
2885.69	5906.83
2886.54	5889.54
2887.4	5879.6
2888.25	5883.59
2889.11	5893.46
2889.96	5897.6
2890.82	5899.23
2891.67	5900.25
2892.52	5895.38
2893.38	5883.26
2894.23	5870.15
2895.09	5856.17
2895.94	5842.09
2896.79	5829.49
2897.65	5831
2898.5	5827.88
2899.35	5824.75
2900.21	5823.23
2901.06	5815.95
2901.91	5808.23
2902.76	5799.49
2903.62	5789.97
2904.47	5780.91
2905.32	5772.25
2906.17	5775.85
2907.03	5774.98
2907.88	5771.01
2908.73	5762.99
2909.58	5751.3
2910.43	5739.47
2911.28	5727.31
2912.14	5714.4
2912.99	5706.8
2913.84	5699.62
2914.69	5694.55
2915.54	5689.87
2916.39	5685.9
2917.24	5682.94
2918.09	5681.09
2918.94	5680.45
2919.79	5680.75
2920.64	5681.79
2921.49	5683.35
2922.34	5678.69
2923.19	5678.24
2924.04	5674.14
2924.89	5668.09
2925.74	5653.15
2926.59	5638.45
2927.44	5620.24
2928.29	5610.66
2929.14	5594.63
2929.98	5579.49
2930.83	5571.42
2931.68	5574.18
2932.53	5580.2
2933.38	5585.04
2934.23	5588.96
2935.07	5591.88
2935.92	5590.74
2936.77	5588.52
2937.62	5557.86
2938.47	5539.98
2939.31	5526.96
2940.16	5537.79
2941.01	5540.47
2941.85	5536.6
2942.7	5533.14
2943.55	5534.42
2944.39	5536.02
2945.24	5537.46
2946.09	5538.36
2946.93	5535.08
2947.78	5508.77
2948.63	5490.38
2949.47	5474.01
2950.32	5462.32
2951.16	5457.66
2952.01	5456.77
2952.85	5454.41
2953.7	5452.28
2954.55	5450.56
2955.39	5440.98
2956.24	5435.37
2957.08	5429.79
2957.92	5435.25
2958.77	5437.74
2959.61	5438.91
2960.46	5440.37
2961.3	5441.5
2962.15	5434.02
2962.99	5425.43
2963.83	5415.49
2964.68	5405.68
2965.52	5396.81
2966.37	5389.25
2967.21	5381.66
2968.05	5375.01
2968.9	5369.23
2969.74	5365.76
2970.58	5368.46
2971.42	5371.06
2972.27	5371.04
2973.11	5368.16
2973.95	5364.05
2974.79	5358.41
2975.64	5351.19
2976.48	5341.32
2977.32	5330.29
2978.16	5318.81
2979	5309.29
2979.85	5301.04
2980.69	5295.48
2981.53	5290.63
2982.37	5287.18
2983.21	5284.83
2984.05	5283.96
2984.89	5285.47
2985.73	5284.63
2986.57	5279.98
2987.41	5272.03
2988.25	5264.31
2989.1	5257.02
2989.94	5251.65
2990.77	5245.69
2991.62	5241.04
2992.45	5236.86
2993.29	5233.8
2994.13	5232.4
2994.97	5233.99
2995.81	5243.23
2996.65	5254.03
2997.49	5273.62
2998.33	5282.34
2999.17	5236.66
