200.833	18419.2
202.102	18551.2
203.371	18536.9
204.639	18533.1
205.907	18564.2
207.175	18574.4
208.442	18567.4
209.71	18561
210.977	18564
212.244	18585.4
213.511	18612.4
214.777	18657.4
216.042	18687.8
217.309	18703.9
218.575	18723.4
219.84	18740.8
221.106	18759.2
222.371	18778.4
223.635	18799.2
224.9	18826.2
226.165	18861.6
227.429	18902.8
228.694	18948.7
229.956	18996.4
231.22	19044.2
232.484	19091.4
233.747	19135.6
235.011	19179.8
236.272	19222.1
237.535	19263.1
238.798	19299.2
240.06	19329.9
241.321	19350.9
242.583	19363.2
243.845	19375.4
245.105	19386.1
246.367	19413.4
247.628	19452.1
248.888	19475.7
250.149	19482.3
251.409	19472.1
252.67	19462.9
253.928	19454.9
255.189	19452.6
256.447	19445.7
257.707	19456.4
258.966	19485.2
260.224	19516.1
261.483	19541.9
262.742	19565.4
263.999	19587.2
265.257	19608.1
266.514	19627.4
267.772	19645.8
269.028	19662.6
270.286	19678.6
271.543	19694.5
272.799	19711.4
274.056	19729.6
275.311	19747.9
276.568	19767
277.823	19793
279.079	19840.3
280.333	19878.7
281.589	19908.4
282.843	19930.7
284.099	19930.4
285.352	19925.3
286.607	19943.6
287.86	19975.5
289.114	20041.1
290.368	20080.8
291.621	20116.7
292.875	20124
294.127	20134.1
295.38	20147.5
296.632	20162.7
297.884	20184
299.137	20215.6
300.388	20235
301.641	20260.6
302.891	20287.5
304.142	20305.3
305.394	20309.8
306.644	20299.9
307.894	20278.3
309.146	20260.2
310.395	20241.7
311.645	20221.2
312.895	20226.2
314.144	20246.4
315.393	20266.3
316.642	20291.1
317.892	20329.3
319.14	20361.3
320.388	20382.1
321.637	20406.3
322.885	20423.5
324.132	20437.1
325.38	20462.1
326.628	20482.4
327.875	20508.4
329.122	20537.1
330.368	20562.8
331.614	20579.8
332.862	20570.1
334.108	20567.9
335.353	20553.6
336.599	20561.4
337.844	20622.8
339.089	20647.5
340.335	20669.8
341.58	20686.1
342.824	20679.9
344.068	20684.5
345.312	20692.9
346.556	20706.4
347.8	20721.4
349.043	20739
350.286	20756
351.53	20774.4
352.774	20793.5
354.016	20813.1
355.259	20832.9
356.501	20852
357.743	20864.4
358.985	20844.2
360.227	20793.9
361.468	20767.1
362.709	20756.1
363.95	20752
365.191	20750.1
366.432	20755.2
367.672	20763.6
368.912	20775.8
370.152	20791
371.392	20807.8
372.632	20827.4
373.871	20850.2
375.11	20872.8
376.348	20893.7
377.587	20911.8
378.825	20927.2
380.064	20940.6
381.302	20952
382.54	20961
383.778	20968.1
385.016	20973.1
386.253	20977.3
387.489	20981.3
388.726	20985.6
389.963	20994.8
391.199	21016.2
392.436	21057.6
393.672	21086.2
394.907	21115.1
396.142	21140.9
397.378	21158.2
398.614	21171.8
399.849	21181.9
401.082	21190.9
402.317	21199.2
403.552	21208.9
404.786	21222
406.019	21232.5
407.253	21242.9
408.487	21253.3
409.721	21263.5
410.953	21273.1
412.186	21282.7
413.419	21292
414.651	21301.2
415.883	21309.8
417.116	21314.5
418.347	21316.1
419.579	21312
420.811	21301.7
422.041	21295.5
423.272	21285.1
424.504	21290.3
425.733	21299.1
426.964	21309
428.194	21313.7
429.424	21320.7
430.654	21329.3
431.883	21338.8
433.113	21348.7
434.341	21359
435.571	21366.5
436.799	21374.1
438.028	21381
439.257	21387.5
440.484	21393.2
441.713	21398.6
442.94	21409.6
444.168	21424.6
445.394	21444.1
446.622	21466.3
447.848	21486.7
449.076	21498.1
450.301	21491.7
451.528	21487.1
452.754	21483.9
453.979	21484.5
455.205	21486.3
456.43	21490.2
457.656	21496.7
458.88	21504.9
460.106	21516.8
461.33	21530.6
462.554	21545.8
463.779	21559.1
465.002	21550.1
466.225	21538
467.45	21523
468.672	21511.2
469.895	21499
471.119	21486.3
472.341	21478.1
473.563	21484.7
474.786	21498.1
476.008	21517.1
477.229	21534.3
478.452	21541.2
479.673	21537.9
480.894	21523.4
482.115	21499
483.337	21476.1
484.557	21443.6
485.777	21426.4
486.997	21428.9
488.218	21440.2
489.438	21443.7
490.657	21447.8
491.876	21451.3
493.096	21453.6
494.315	21452.9
495.533	21451
496.752	21447.2
497.97	21441.8
499.188	21434.4
500.407	21425.1
501.625	21413.2
502.842	21410.1
504.059	21423.7
505.276	21443.8
506.493	21469.6
507.71	21502.2
508.926	21509.7
510.142	21514.8
511.358	21530.9
512.575	21546.9
513.791	21562.2
515.006	21574.9
516.222	21583.6
517.437	21587.9
518.651	21587.4
519.866	21582.6
521.081	21572.7
522.295	21559
523.509	21585.8
524.723	21611.4
525.937	21640.2
527.15	21644.4
528.363	21602
529.576	21610.3
530.789	21618.4
532.002	21639.9
533.215	21667
534.426	21691.4
535.638	21702.1
536.85	21699.2
538.061	21702
539.273	21704.1
540.484	21707.2
541.695	21709.7
542.906	21712.8
544.117	21718.3
545.327	21724.6
546.537	21731.7
547.747	21737.8
548.957	21730.8
550.167	21723.3
551.377	21715.3
552.585	21712.6
553.794	21709.1
555.003	21706.9
556.212	21705.8
557.421	21706.1
558.628	21708.4
559.836	21712.1
561.044	21727.6
562.252	21734.2
563.458	21741.5
564.666	21744.7
565.873	21741.9
567.08	21732.4
568.286	21723.2
569.493	21715.7
570.699	21710.1
571.904	21707.2
573.111	21716.9
574.317	21727.8
575.521	21741.8
576.727	21763.4
577.932	21783.2
579.136	21785.7
580.341	21777.7
581.544	21758.9
582.749	21727.4
583.954	21698.6
585.156	21696.4
586.361	21766.3
587.563	21788.5
588.767	21805.1
589.97	21806.7
591.172	21792.8
592.375	21760.9
593.577	21737.5
594.78	21702.4
595.981	21689.7
597.183	21711.7
598.384	21725.1
599.586	21739
600.786	21739.5
601.988	21725.4
603.188	21695.8
604.389	21695.2
605.589	21698.4
606.79	21705.3
607.989	21714.6
609.188	21725.9
610.389	21735.8
611.587	21724.8
612.787	21677.5
613.986	21644.6
615.184	21610.3
616.383	21617.7
617.581	21623
618.78	21625.1
619.977	21624
621.174	21619.7
622.373	21610.8
623.57	21598.2
624.766	21582.9
625.964	21565.7
627.16	21548.5
628.356	21534.3
629.554	21519.5
630.749	21506
631.945	21492.3
633.14	21479.7
634.337	21469.9
635.532	21464.1
636.726	21474.8
637.921	21470
639.117	21445.4
640.311	21412.5
641.505	21385.3
642.699	21373
643.892	21370.1
645.087	21378
646.28	21393.5
647.473	21411.7
648.666	21435.4
649.859	21446.6
651.051	21436.9
652.245	21434.2
653.437	21442.2
654.629	21451.8
655.821	21460.8
657.012	21468.8
658.204	21475.7
659.395	21481.6
660.586	21486.1
661.777	21488.3
662.967	21490.2
664.158	21491.9
665.349	21497.7
666.539	21504.5
667.729	21511.4
668.919	21512.2
670.109	21501.9
671.298	21505.6
672.487	21510.3
673.676	21517.8
674.865	21529.8
676.053	21549
677.242	21574.7
678.43	21619
679.616	21564.9
680.804	21559.7
681.992	21554.7
683.179	21535.2
684.366	21513.1
685.554	21491.9
686.74	21467.4
687.927	21449
689.114	21447.6
690.3	21454.3
691.486	21460.9
692.671	21462.6
693.856	21460.4
695.042	21454.6
696.227	21444.9
697.413	21430.8
698.598	21413.3
699.781	21393.4
700.966	21372.1
702.15	21349.7
703.334	21329.8
704.518	21310.3
705.701	21298.1
706.885	21285
708.068	21274.6
709.252	21265.8
710.433	21261
711.616	21262.6
712.799	21277.8
713.98	21309
715.163	21336.9
716.345	21342.5
717.527	21331.9
718.707	21298.2
719.889	21263.8
721.071	21231
722.25	21215.9
723.432	21221.3
724.611	21249.9
725.792	21280.2
726.972	21302
728.151	21310.1
729.332	21309.8
730.512	21286.1
731.69	21287
732.87	21300.8
734.048	21308.3
735.227	21331.1
736.405	21376.6
737.584	21401.8
738.761	21390.1
739.94	21367.6
741.117	21344.5
742.295	21325.1
743.471	21327.9
744.649	21359.6
745.825	21370.8
747.003	21380
748.179	21392.3
749.356	21402.1
750.531	21411.1
751.708	21416.3
752.883	21417.1
754.059	21412.8
755.234	21402.1
756.409	21394.4
757.585	21387.1
758.759	21380.6
759.934	21375.4
761.108	21378.2
762.282	21381.7
763.456	21377.7
764.63	21367.1
765.803	21333.8
766.977	21307.8
768.15	21292.3
769.323	21281.2
770.496	21269.6
771.668	21259.4
772.841	21250.1
774.014	21241.2
775.185	21224.8
776.357	21209.3
777.528	21194.8
778.701	21189.6
779.872	21195.5
781.042	21210.4
782.213	21197.1
783.383	21174.2
784.555	21148.2
785.725	21117.3
786.895	21086.7
788.064	21067.9
789.234	21053.5
790.404	21041.1
791.573	21031.3
792.742	21026.1
793.911	21005.1
795.08	20998.1
796.248	20998
797.416	20996.7
798.584	20997
799.753	20999.4
800.921	21003.8
802.088	21008.9
803.256	21013.7
804.423	21018.7
805.59	21024.8
806.756	21025.8
807.923	21012.5
809.089	21002.7
810.256	20994
811.422	20990.4
812.587	20991.1
813.753	20994.5
814.918	20999.9
816.084	21006.9
817.249	21014.5
818.414	21022.5
819.578	21029.9
820.743	21038.4
821.907	21047.1
823.072	21054.5
824.236	21060.3
825.399	21062.3
826.562	21062.4
827.725	21059.2
828.889	21053.8
830.052	21046.3
831.215	21036.4
832.377	21025.8
833.54	21021.9
834.701	21044.4
835.863	21061.8
837.025	21095
838.187	21117.3
839.349	21123.5
840.51	21114.7
841.67	21090.6
842.831	21054.9
843.992	21024.6
845.153	21007.9
846.312	20997.4
847.473	20989.1
848.633	20985
849.793	20984.9
850.951	20991.5
852.111	20997.9
853.27	20996.3
854.428	20990.5
855.588	20982.2
856.747	20964.6
857.904	20940.1
859.063	20916.2
860.221	20897.9
861.378	20880.5
862.536	20866.8
863.694	20856.7
864.85	20849.1
866.008	20844.2
867.164	20840.3
868.321	20829.1
869.478	20811.1
870.633	20782.4
871.79	20756.8
872.945	20715.6
874.101	20704.1
875.256	20723.8
876.412	20716.8
877.566	20691.3
878.722	20666.5
879.876	20592.2
881.031	20590.5
882.185	20584.6
883.34	20579
884.493	20565.3
885.647	20553.3
886.8	20542.9
887.954	20532
889.107	20521.6
890.261	20520.5
891.413	20520.9
892.565	20523
893.718	20527.3
894.87	20534.8
896.023	20542.8
897.174	20547.5
898.326	20531.4
899.478	20514.2
900.629	20506.5
901.779	20520.2
902.931	20531.7
904.081	20541
905.231	20547.1
906.383	20553.2
907.532	20557.9
908.682	20561.2
909.831	20563.1
910.982	20564.6
912.131	20565.4
913.28	20566.2
914.429	20566.9
915.578	20567.5
916.727	20567.8
917.875	20568
919.023	20568.1
920.171	20567.9
921.32	20567.4
922.467	20566.8
923.614	20565.3
924.761	20570
925.908	20577.2
927.055	20591.4
928.203	20600.6
929.349	20605.8
930.496	20608.3
931.642	20600.1
932.787	20590.5
933.933	20579.5
935.079	20563.7
936.224	20571.4
937.369	20578.5
938.514	20562.5
939.659	20540.6
940.804	20521.9
941.948	20505.7
943.092	20491.7
944.236	20479.7
945.38	20469.1
946.524	20460.7
947.667	20453.8
948.811	20449
949.954	20445.8
951.097	20443.7
952.24	20442.1
953.383	20438.6
954.525	20437
955.667	20433.9
956.81	20424.6
957.952	20398.2
959.093	20371
960.235	20343
961.376	20319.8
962.516	20300.8
963.658	20288.5
964.798	20278.8
965.939	20272
967.08	20267.9
968.22	20266.6
969.359	20267.3
970.499	20266.2
971.639	20267.9
972.779	20260.8
973.918	20234.5
975.056	20221
976.195	20215.2
977.334	20216.8
978.473	20225.3
979.61	20235.5
980.749	20251.3
981.887	20272
983.024	20296.3
984.162	20287.3
985.3	20232.7
986.437	20146.8
987.573	20173.6
988.711	20195.7
989.848	20212.6
990.983	20224.7
992.12	20232
993.255	20234.7
994.392	20232.1
995.528	20226
996.662	20219.9
997.798	20213.4
998.933	20214.6
1000.07	20215.3
1001.2	20217.6
1002.34	20221.2
1003.47	20226.7
1004.61	20233.5
1005.74	20242.1
1006.87	20251.8
1008.01	20262.4
1009.14	20273.6
1010.27	20276.9
1011.41	20269.8
1012.54	20187.9
1013.67	20269.4
1014.81	20285.9
1015.94	20252.5
1017.07	20217.3
1018.2	20186.4
1019.33	20168.7
1020.47	20150.3
1021.6	20136.9
1022.73	20130.7
1023.86	20128.4
1024.99	20133.1
1026.12	20142.1
1027.25	20154.2
1028.38	20164
1029.51	20137.6
1030.64	20096.7
1031.77	20064.7
1032.9	20037.9
1034.03	20013
1035.16	20007.7
1036.29	20009.8
1037.42	20013.8
1038.55	20018
1039.67	20021.4
1040.8	20022
1041.93	20003
1043.06	19980.5
1044.19	19943.7
1045.31	19906.2
1046.44	19886.7
1047.57	19877.9
1048.69	19873.8
1049.82	19866
1050.95	19855
1052.08	19840.1
1053.2	19820.9
1054.33	19797.8
1055.45	19769
1056.58	19737.8
1057.7	19720.5
1058.83	19720.3
1059.95	19724.1
1061.08	19730
1062.2	19743.2
1063.33	19767.6
1064.45	19735.8
1065.58	19722.6
1066.7	19707.4
1067.83	19691.9
1068.95	19676.7
1070.07	19679.8
1071.2	19686.7
1072.32	19699.4
1073.44	19717.6
1074.56	19735.4
1075.69	19749.9
1076.81	19758.9
1077.93	19763.2
1079.05	19765.3
1080.17	19757.4
1081.3	19745.5
1082.42	19726.3
1083.54	19706.8
1084.66	19714.5
1085.78	19719
1086.9	19723.2
1088.02	19728.2
1089.14	19735
1090.26	19746.3
1091.38	19756.9
1092.5	19762
1093.62	19761.4
1094.74	19749.8
1095.86	19736.2
1096.98	19717.6
1098.1	19694
1099.22	19664.1
1100.34	19649.9
1101.45	19657.7
1102.57	19670.7
1103.69	19678.2
1104.81	19682
1105.93	19682.4
1107.04	19679.8
1108.16	19674
1109.28	19665
1110.4	19652.9
1111.51	19637.6
1112.63	19627.7
1113.75	19624.7
1114.86	19608.3
1115.98	19587.8
1117.09	19557.2
1118.21	19533.1
1119.32	19509
1120.44	19487.6
1121.55	19469.7
1122.67	19454
1123.78	19441.5
1124.9	19431.2
1126.01	19422.7
1127.13	19414.9
1128.24	19383.1
1129.35	19355.8
1130.47	19333.2
1131.58	19304.4
1132.7	19292.6
1133.81	19291
1134.92	19280.4
1136.03	19263.4
1137.15	19239.5
1138.26	19208.7
1139.37	19170.9
1140.48	19147.8
1141.59	19131.4
1142.71	19121.5
1143.82	19118.4
1144.93	19139.2
1146.04	19147.1
1147.15	19141.7
1148.26	19119.1
1149.37	19034.3
1150.48	18974.1
1151.59	18974.2
1152.7	18977.9
1153.81	18984
1154.92	18992.4
1156.03	19005.5
1157.14	19016.7
1158.25	19018.1
1159.36	19006.1
1160.47	18989.2
1161.58	18969.3
1162.68	18951.5
1163.79	18943.6
1164.9	18938
1166.01	18933.9
1167.12	18933.3
1168.22	18933.3
1169.33	18933.4
1170.44	18932.3
1171.55	18929
1172.65	18924.9
1173.76	18920.5
1174.87	18913.4
1175.97	18905.1
1177.08	18896.1
1178.18	18888.2
1179.29	18886.7
1180.4	18889.2
1181.5	18904.8
1182.61	18922.6
1183.71	18944.9
1184.82	18964.9
1185.92	18973
1187.02	18966.4
1188.13	18967.7
1189.23	18967.2
1190.34	18962.6
1191.44	18957.5
1192.54	18950.5
1193.65	18943.7
1194.75	18937.8
1195.85	18936.5
1196.96	18953.5
1198.06	18967.1
1199.16	18973.8
1200.26	18975.7
1201.37	18975
1202.47	18972.1
1203.57	18968.2
1204.67	18963
1205.77	18955.6
1206.87	18947.1
1207.97	18937.5
1209.08	18928.8
1210.18	18922.8
1211.28	18919.8
1212.38	18918.8
1213.48	18919.9
1214.58	18921.4
1215.68	18923.8
1216.78	18926.9
1217.88	18931.6
1218.98	18936
1220.07	18933.8
1221.17	18924.3
1222.27	18898
1223.37	18858.4
1224.47	18822.1
1225.57	18794.5
1226.66	18775
1227.76	18764
1228.86	18761
1229.96	18766.4
1231.06	18782.6
1232.15	18781
1233.25	18759.2
1234.35	18724.8
1235.44	18681.5
1236.54	18638.1
1237.63	18614
1238.73	18613.7
1239.83	18613.3
1240.92	18615.3
1242.02	18618.8
1243.11	18622.1
1244.21	18576.3
1245.3	18559.6
1246.4	18546.1
1247.49	18541
1248.59	18542.5
1249.68	18545.2
1250.78	18548.7
1251.87	18548.5
1252.96	18547.1
1254.06	18540.7
1255.15	18528.2
1256.24	18514.3
1257.34	18507.5
1258.43	18509.5
1259.52	18515.8
1260.62	18521
1261.71	18526.6
1262.8	18533.2
1263.89	18535.8
1264.98	18527.1
1266.08	18498
1267.17	18471.2
1268.26	18454
1269.35	18443.7
1270.44	18441
1271.53	18445.2
1272.62	18462.6
1273.71	18486
1274.8	18515
1275.89	18543.1
1276.98	18547.4
1278.07	18549.2
1279.16	18545.1
1280.25	18528.1
1281.34	18515.3
1282.43	18507.5
1283.52	18504.9
1284.61	18505.8
1285.69	18508.7
1286.78	18495.5
1287.87	18478.6
1288.96	18464.6
1290.05	18461.6
1291.13	18465.1
1292.22	18476.5
1293.31	18494.1
1294.4	18516.2
1295.48	18544.6
1296.57	18554
1297.66	18550.7
1298.74	18540.8
1299.83	18521.5
1300.92	18501.6
1302	18486.4
1303.09	18477.9
1304.17	18482.9
1305.26	18485.6
1306.34	18498.2
1307.43	18508.1
1308.51	18506.6
1309.6	18501
1310.68	18477
1311.76	18467.2
1312.85	18477
1313.93	18481.9
1315.02	18481.7
1316.1	18476.9
1317.18	18467.8
1318.27	18456.4
1319.35	18446.5
1320.43	18435.3
1321.52	18426.3
1322.6	18420.5
1323.68	18422.6
1324.76	18419.3
1325.85	18408.9
1326.93	18393.7
1328.01	18380.3
1329.09	18368.7
1330.17	18358.1
1331.25	18340.2
1332.33	18321.1
1333.41	18305
1334.49	18296.9
1335.58	18289.6
1336.65	18290.1
1337.74	18290.8
1338.82	18288.7
1339.89	18281.8
1340.97	18272.1
1342.05	18261.4
1343.13	18243.8
1344.21	18227.3
1345.29	18212.1
1346.37	18205.4
1347.45	18203.5
1348.53	18203
1349.6	18202.3
1350.68	18202.6
1351.76	18203.1
1352.84	18203.3
1353.92	18199
1354.99	18191.4
1356.07	18183.5
1357.15	18176.3
1358.22	18167.5
1359.3	18157.9
1360.38	18147.7
1361.45	18137.5
1362.53	18131.8
1363.61	18131.3
1364.68	18145
1365.76	18163
1366.83	18186.3
1367.91	18207.7
1368.98	18216.2
1370.06	18211.2
1371.13	18198.8
1372.21	18185.7
1373.28	18172
1374.35	18158.9
1375.43	18146.8
1376.5	18134.3
1377.58	18122.1
1378.65	18110.2
1379.72	18098.6
1380.8	18088.2
1381.87	18078.9
1382.94	18084.2
1384.01	18095.2
1385.09	18097
1386.16	18102.9
1387.23	18094.1
1388.3	18087.5
1389.38	18081.7
1390.45	18075.6
1391.52	18068.8
1392.59	18060.6
1393.66	18051.3
1393.92	18047.6
1395	18039.4
1396.07	18030.7
1397.15	18022.1
1398.22	18013
1399.3	18002.8
1400.38	17992.5
1401.45	17983
1402.53	17975.1
1403.6	17971.8
1404.68	17969.1
1405.75	17971.3
1406.82	17977.7
1407.9	17988.5
1408.97	17995.9
1410.05	17998.9
1411.12	17994.5
1412.19	17970.2
1413.27	17961.4
1414.34	17942.5
1415.41	17921.4
1416.49	17916.9
1417.56	17913.5
1418.63	17915.1
1419.7	17924.2
1420.78	17914.9
1421.85	17877.3
1422.92	17858.8
1423.99	17846.4
1425.06	17834.8
1426.14	17833.3
1427.21	17853.2
1428.28	17810.3
1429.35	17799.4
1430.42	17790.5
1431.49	17783.1
1432.56	17777.2
1433.63	17776.3
1434.7	17771
1435.77	17762.3
1436.84	17765.5
1437.91	17771.7
1438.98	17777.6
1440.05	17783.2
1441.12	17782.3
1442.18	17776.4
1443.25	17752.6
1444.32	17732.7
1445.39	17736.3
1446.46	17729.7
1447.53	17726.3
1448.59	17721.5
1449.66	17714.1
1450.73	17706
1451.8	17693.9
1452.86	17684.3
1453.93	17677.7
1455	17675.5
1456.06	17676.9
1457.13	17677.6
1458.2	17679.4
1459.26	17683.1
1460.33	17687.3
1461.39	17692.7
1462.46	17698.1
1463.52	17701.5
1464.59	17701.9
1465.65	17694.9
1466.72	17683.4
1467.78	17666.5
1468.85	17645.2
1469.91	17618
1470.98	17595.1
1472.04	17595.2
1473.1	17610.6
1474.17	17616.5
1475.23	17622.3
1476.3	17632.7
1477.36	17637.9
1478.42	17625.4
1479.48	17616.5
1480.55	17605.1
1481.61	17622.3
1482.67	17634
1483.73	17641.7
1484.8	17644.5
1485.86	17507.3
1486.92	17508.1
1487.98	17519.4
1489.04	17585
1490.1	17621
1491.17	17563.4
1492.23	17536.6
1493.29	17508.7
1494.35	17482.6
1495.41	17466.2
1496.47	17456.8
1497.53	17456.1
1498.59	17458.1
1499.65	17466
1500.71	17475.5
1501.77	17475.5
1502.83	17473.2
1503.88	17465.6
1504.94	17454.1
1506	17435.4
1507.06	17411.6
1508.12	17379.9
1509.18	17346.6
1510.23	17348.5
1511.29	17361.8
1512.35	17381.3
1513.41	17376.1
1514.47	17362.8
1515.52	17346.5
1516.58	17342.6
1517.64	17333.6
1518.69	17328
1519.75	17331.4
1520.81	17329.9
1521.86	17325
1522.92	17316.5
1523.97	17304.7
1525.03	17289.3
1526.08	17270.7
1527.14	17249.3
1528.2	17224.3
1529.25	17203.1
1530.31	17203
1531.36	17197.2
1532.42	17190.8
1533.47	17184.9
1534.52	17180.6
1535.58	17177.3
1536.63	17175.1
1537.69	17174.9
1538.74	17176.7
1539.79	17181.4
1540.84	17190.9
1541.9	17201.5
1542.95	17198.9
1544	17179.8
1545.06	17155.8
1546.11	17134.6
1547.16	17119.5
1548.21	17108.8
1549.27	17099
1550.32	17094.6
1551.37	17098.3
1552.42	17108.1
1553.47	17131.9
1554.52	17149.9
1555.57	17158.6
1556.62	17161.4
1557.67	17158.9
1558.72	17151.4
1559.77	17141.7
1560.82	17128.2
1561.87	17114.8
1562.92	17101.9
1563.97	17091.6
1565.02	17087.2
1566.07	17088.2
1567.12	17091.9
1568.17	17099.5
1569.22	17111.1
1570.27	17125.1
1571.32	17128.6
1572.36	17114.3
1573.41	17096.4
1574.46	17075.4
1575.51	17060.3
1576.56	17052
1577.6	17042.3
1578.65	17033.3
1579.7	17026.2
1580.74	17019.6
1581.79	17014.7
1582.84	17009.1
1583.88	17003.8
1584.93	16998.1
1585.98	16990.7
1587.02	16986.3
1588.07	16982.1
1589.11	16978.3
1590.16	16975.1
1591.2	16972.2
1592.25	16969.9
1593.29	16966.4
1594.34	16962.3
1595.38	16962.2
1596.43	16971.2
1597.47	16954.7
1598.52	16894.5
1599.56	16885
1600.6	16865.8
1601.65	16871.8
1602.69	16861.7
1603.73	16855.6
1604.78	16805.8
1605.82	16786.1
1606.86	16770.6
1607.91	16756.7
1608.95	16745.6
1609.99	16736.5
1611.03	16728.3
1612.08	16720.4
1613.12	16712.7
1614.16	16704.3
1615.2	16696
1616.24	16687.4
1617.28	16678.9
1618.32	16670.7
1619.36	16663.3
1620.41	16660.1
1621.45	16656.6
1622.49	16651.7
1623.53	16641.2
1624.57	16616.4
1625.61	16587.5
1626.65	16555.1
1627.69	16521.3
1628.73	16495.4
1629.76	16474.3
1630.8	16498
1631.84	16533.7
1632.88	16516.5
1633.92	16490.7
1634.96	16451.5
1636	16425.8
1637.03	16432.7
1638.07	16415.8
1639.11	16399.5
1640.15	16388.3
1641.19	16378.6
1642.22	16373.8
1643.26	16369.2
1644.3	16360.9
1645.33	16353.7
1646.37	16343.2
1647.41	16335.1
1648.44	16329.5
1649.48	16325.5
1650.52	16328.4
1651.55	16331.7
1652.59	16333.6
1653.62	16335.5
1654.66	16318.6
1655.69	16296.7
1656.73	16272.1
1657.76	16252
1658.8	16244.4
1659.83	16239.1
1660.87	16238.3
1661.9	16238.3
1662.93	16243.8
1663.97	16248.6
1665	16252.2
1666.04	16253.5
1667.07	16251.7
1668.1	16240.1
1669.14	16222.6
1670.17	16205.6
1671.2	16189.1
1672.23	16173.7
1673.27	16165.2
1674.3	16157.5
1675.33	16152
1676.36	16148.5
1677.39	16147.6
1678.43	16148.6
1679.46	16151.9
1680.49	16157.5
1681.52	16166.6
1682.55	16182.1
1683.58	16197.2
1684.61	16201.6
1685.64	16193.8
1686.67	16173
1687.7	16140.7
1688.73	16108.3
1689.76	16086.8
1690.79	16073.5
1691.82	16063.9
1692.85	16070.3
1693.88	16081.2
1694.91	16091.8
1695.94	16093.8
1696.97	16089.9
1698	16079.2
1699.02	16059.5
1700.05	16033.4
1701.08	16002.3
1702.11	15971.3
1703.14	15947.9
1704.16	15931.1
1705.19	15924.7
1706.22	15921.7
1707.25	15901.8
1708.27	15886.5
1709.3	15878.4
1710.33	15877.6
1711.35	15877.2
1712.38	15876.1
1713.41	15870.6
1714.43	15861.5
1715.46	15848.1
1716.48	15830.9
1717.51	15811
1718.53	15790
1719.56	15768.9
1720.58	15752
1721.61	15743.6
1722.63	15738.9
1723.66	15751.4
1724.68	15753.6
1725.71	15735.9
1726.73	15713.5
1727.75	15604.3
1728.78	15610.2
1729.8	15621
1730.83	15704.4
1731.85	15685.9
1732.87	15588.1
1733.89	15594.6
1734.92	15600.9
1735.94	15622.6
1736.96	15636.1
1737.98	15642.6
1739.01	15643.6
1740.03	15612.7
1741.05	15600.4
1742.07	15591.7
1743.09	15583.6
1744.12	15582.4
1745.14	15566.4
1746.16	15546.5
1747.18	15522.9
1748.2	15494.6
1749.22	15468.8
1750.24	15457.9
1751.26	15450.8
1752.28	15445.6
1753.3	15441
1754.32	15435.7
1755.34	15431.6
1756.36	15428.3
1757.38	15425.3
1758.4	15422.6
1759.42	15418.4
1760.44	15407.3
1761.45	15399.3
1762.47	15394.7
1763.49	15396
1764.51	15395.7
1765.53	15393.9
1766.55	15390.7
1767.56	15385.4
1768.58	15376
1769.6	15363.7
1770.61	15346.9
1771.63	15336
1772.65	15324.5
1773.67	15316.5
1774.68	15308.7
1775.7	15302.7
1776.72	15297.5
1777.73	15292.1
1778.75	15284.8
1779.76	15254.1
1780.78	15224.3
1781.79	15196.5
1782.81	15171.5
1783.83	15151.5
1784.84	15146.7
1785.85	15147.6
1786.87	15155.9
1787.88	15160.9
1788.9	15156.3
1789.91	15142.3
1790.93	15132.1
1791.94	15122.4
1792.95	15113.8
1793.97	15104.8
1794.98	15096.1
1796	15087.4
1797.01	15078.8
1798.02	15070.3
1799.03	15062.2
1800.05	15054
1801.06	15048.1
1802.07	15043.3
1803.08	15037.7
1804.1	15031.2
1805.11	15024
1806.12	15013.6
1807.13	15000.4
1808.14	14981.9
1809.15	14958.9
1810.17	14935.8
1811.18	14914.6
1812.19	14894.3
1813.2	14884.8
1814.21	14886.5
1815.22	14892.7
1816.23	14881.7
1817.24	14858.7
1818.25	14784.7
1819.26	14779.7
1820.27	14786.7
1821.28	14814.5
1822.29	14811.7
1823.3	14775.2
1824.3	14756.8
1825.31	14748.6
1826.32	14741.7
1827.33	14738.7
1828.34	14726.3
1829.35	14711.4
1830.35	14695.7
1831.36	14679.6
1832.37	14663.3
1833.38	14646.9
1834.38	14630.6
1835.39	14613.8
1836.4	14596.8
1837.41	14579.8
1838.41	14569.1
1839.42	14568.5
1840.43	14571.3
1841.43	14576.5
1842.44	14582.6
1843.44	14561.1
1844.45	14545.3
1845.46	14523.3
1846.46	14498.3
1847.47	14472.2
1848.47	14456.5
1849.48	14443.1
1850.48	14431.6
1851.49	14422.1
1852.49	14414.8
1853.49	14409.7
1854.5	14403.9
1855.5	14396.4
1856.51	14384.4
1857.51	14381.9
1858.51	14380.7
1859.52	14382.3
1860.52	14374.8
1861.52	14364.3
1862.53	14354
1863.53	14344.3
1864.53	14334.6
1865.54	14324.5
1866.54	14313.7
1867.54	14302.9
1868.54	14289.9
1869.54	14276.9
1870.55	14260.7
1871.55	14240.5
1872.55	14221.9
1873.55	14211.7
1874.55	14228.1
1875.55	14244.9
1876.55	14251.1
1877.55	14234.9
1878.55	14217.5
1879.55	14197.4
1880.56	14178.2
1881.55	14159.1
1882.56	14143.3
1883.55	14129.2
1884.55	14117.2
1885.55	14106.9
1886.55	14099.6
1887.55	14094.4
1888.55	14091.8
1889.55	14090.6
1890.55	14084.6
1891.55	14073.5
1892.55	14056.4
1893.54	14039.8
1894.54	14022.6
1895.54	14005.8
1896.54	13991.5
1897.54	13978.6
1898.53	13965.8
1899.53	13955.7
1900.53	13948.1
1901.52	13944.6
1902.52	13942.4
1903.52	13939.1
1904.51	13933.5
1905.51	13917.6
1906.51	13898.9
1907.5	13867.2
1908.5	13837.1
1909.49	13815.4
1910.49	13795.7
1911.49	13780.7
1912.48	13768.1
1913.48	13758.6
1914.47	13751.9
1915.46	13748
1916.46	13746.6
1917.45	13745.5
1918.45	13743.2
1919.44	13739.6
1920.44	13734
1921.43	13722.4
1922.43	13713.4
1923.42	13696.3
1924.41	13673.1
1925.41	13671.3
1926.4	13670.2
1927.39	13664.3
1928.38	13659
1929.38	13647.5
1930.37	13635.5
1931.36	13621.7
1932.35	13606.9
1933.35	13593.2
1934.34	13581.1
1935.33	13574
1936.32	13566
1937.31	13557.9
1938.3	13549.2
1939.29	13540.2
1940.29	13529.8
1941.28	13516.8
1942.27	13501.9
1943.26	13484.8
1944.25	13465.5
1945.24	13444.2
1946.23	13419.2
1947.22	13389.8
1948.21	13356.3
1949.2	13348.6
1950.19	13352.7
1951.18	13353.6
1952.17	13345.1
1953.16	13339.3
1954.14	13325.9
1955.13	13312
1956.12	13303.6
1957.11	13303.9
1958.1	13294.4
1959.09	13307
1960.07	13310.3
1961.06	13300.6
1962.05	13270.2
1963.04	13243.1
1964.02	13222.7
1965.01	13209.5
1966	13200
1966.99	13189
1967.97	13179.9
1968.96	13180.8
1969.95	13165.4
1970.93	13150.6
1971.92	13136.1
1972.9	13124
1973.89	13117.6
1974.88	13113.1
1975.86	13101.5
1976.85	13088.6
1977.83	13059.9
1978.82	13037.3
1979.8	13016.7
1980.79	13005.8
1981.77	13007.7
1982.76	13018.8
1983.74	13025.8
1984.72	13029.2
1985.71	13021.1
1986.69	13005.3
1987.67	12980.9
1988.66	12958.5
1989.64	12942.2
1990.62	12929.4
1991.61	12915.9
1992.59	12902.3
1993.57	12888.9
1994.56	12874.4
1995.54	12865.7
1996.52	12873.2
1997.5	12873.8
1998.49	12870.7
1999.47	12867.1
2000.45	12862.5
2001.43	12851
2002.41	12845.2
2003.39	12837.4
2004.38	12829.9
2005.36	12825.5
2006.34	12816.8
2007.32	12802.9
2008.3	12769.6
2009.28	12728.6
2010.26	12717.1
2011.24	12717.1
2012.22	12715
2013.2	12712.6
2014.18	12708.7
2015.16	12707.6
2016.14	12702.7
2017.12	12686.3
2018.1	12662.4
2019.07	12642
2020.05	12621.1
2021.03	12600.8
2022.01	12581.2
2022.99	12562
2023.97	12550.3
2024.95	12540.8
2025.92	12532.8
2026.9	12526.1
2027.88	12520.5
2028.86	12515.4
2029.83	12509
2030.81	12504.2
2031.79	12499.9
2032.76	12495.4
2033.74	12491
2034.72	12448.2
2035.69	12412.4
2036.67	12396.4
2037.65	12438.2
2038.62	12437.7
2039.6	12425
2040.57	12403.8
2041.55	12378.1
2042.52	12362.1
2043.5	12342.9
2044.47	12323.1
2045.45	12302.3
2046.42	12280.5
2047.4	12258.9
2048.37	12238.1
2049.35	12224.2
2050.32	12203.8
2051.29	12200.6
2052.27	12220.8
2053.24	12223.2
2054.21	12221
2055.19	12214
2056.16	12202.9
2057.13	12184.4
2058.11	12165.6
2059.08	12148.2
2060.05	12131.5
2061.02	12115.9
2062	12101.3
2062.97	12089
2063.94	12085.3
2064.91	12091.2
2065.89	12083.1
2066.86	12062.4
2067.83	12043.1
2068.8	12026.3
2069.77	12011.6
2070.74	11998.9
2071.71	11988.5
2072.68	11980
2073.65	11972.9
2074.62	11964.6
2075.59	11955.1
2076.56	11943.5
2077.53	11929
2078.5	11913.7
2079.47	11899.2
2080.44	11878.6
2081.41	11872.5
2082.38	11886.7
2083.35	11883
2084.32	11871.2
2085.29	11858.6
2086.26	11845
2087.23	11830.1
2088.19	11816.2
2089.16	11799.6
2090.13	11782.7
2091.1	11764.9
2092.07	11746.9
2093.03	11730.6
2094	11715.7
2094.97	11716.8
2095.94	11715.4
2096.9	11716.8
2097.87	11716.7
2098.84	11701.7
2099.8	11684.1
2100.77	11668.2
2101.74	11653.7
2102.7	11642
2103.67	11631
2104.63	11621.2
2105.6	11613.2
2106.56	11606.2
2107.53	11600.7
2108.49	11594.4
2109.46	11577.4
2110.42	11559.8
2111.39	11540.2
2112.35	11518.7
2113.32	11498.3
2114.28	11479
2115.25	11461.1
2116.21	11448.9
2117.17	11438.7
2118.14	11430.7
2119.1	11426.2
2120.07	11424.4
2121.03	11425.1
2121.99	11419.5
2122.96	11413
2123.92	11404.7
2124.88	11395.2
2125.84	11383.6
2126.81	11370.9
2127.77	11356.7
2128.73	11343.1
2129.69	11350.1
2130.65	11346.5
2131.62	11354.5
2132.58	11336.7
2133.54	11315
2134.5	11287.3
2135.46	11249.7
2136.42	11218.5
2137.38	11193.4
2138.34	11180.2
2139.3	11179.2
2140.26	11189
2141.22	11193.1
2142.18	11199.6
2143.14	11213.7
2144.1	11196.8
2145.06	11170
2146.02	11132.7
2146.98	11116.6
2147.94	11117
2148.9	11141.1
2149.86	11128.2
2150.82	11116.3
2151.78	11099.6
2152.74	11081.6
2153.69	11060.1
2154.65	11040.3
2155.61	11022.2
2156.57	11005.9
2157.53	10990.6
2158.48	10977.1
2159.44	10966.7
2160.4	10959.7
2161.36	10961.9
2162.31	10965.1
2163.27	10963.7
2164.23	10959.4
2165.18	10953.2
2166.14	10936.3
2167.1	10917
2168.05	10895.2
2169.01	10878.1
2169.96	10865.3
2170.92	10847.7
2171.88	10827.2
2172.83	10802.2
2173.79	10766.9
2174.74	10731.7
2175.7	10696.8
2176.65	10675.5
2177.6	10660.5
2178.56	10645.2
2179.51	10637.6
2180.47	10626.4
2181.42	10614.3
2182.38	10600
2183.33	10577.9
2184.28	10558.5
2185.24	10544.9
2186.19	10536.4
2187.14	10528.9
2188.1	10517.8
2189.05	10507.4
2190	10498
2190.96	10489.4
2191.91	10481.6
2192.86	10474.7
2193.81	10468.9
2194.76	10463.6
2195.72	10459
2196.67	10451.5
2197.62	10438.4
2198.57	10421.6
2199.52	10401.1
2200.47	10371.6
2201.43	10351.1
2202.38	10332.9
2203.33	10330.2
2204.28	10332.3
2205.23	10339
2206.18	10340.7
2207.13	10330.8
2208.08	10320.3
2209.03	10299
2209.98	10284.7
2210.93	10267.7
2211.88	10256.7
2212.83	10252
2213.78	10251.3
2214.73	10243.9
2215.67	10241.5
2216.62	10231.4
2217.57	10216.7
2218.52	10201.9
2219.47	10197.5
2220.42	10196.7
2221.37	10209.2
2222.31	10214.3
2223.26	10213.3
2224.21	10207.4
2225.16	10190.4
2226.1	10165.1
2227.05	10138.8
2228	10116.8
2228.94	10096.1
2229.89	10077.2
2230.84	10066.4
2231.78	10067
2232.73	10075.2
2233.68	10080.7
2234.62	10080.3
2235.57	10074.4
2236.51	10066.4
2237.46	10060
2238.41	10051.4
2239.35	10042.3
2240.3	10031.5
2241.24	10022.9
2242.19	10016.2
2243.13	10006.7
2244.07	10000.2
2245.02	9995.59
2245.96	9997.49
2246.91	10004
2247.85	10010.2
2248.8	10013.7
2249.74	9977.64
2250.68	9985.11
2251.63	9984.91
2252.57	9977.82
2253.51	9975
2254.46	9971.42
2255.4	9969
2256.34	9967.26
2257.28	9960.7
2258.23	9952.9
2259.17	9944.09
2260.11	9934.5
2261.05	9925.49
2262	9915.56
2262.94	9907.55
2263.88	9904.26
2264.82	9900.56
2265.76	9896.65
2266.7	9893.34
2267.64	9892.27
2268.58	9892.51
2269.53	9892.99
2270.47	9887.28
2271.41	9873.91
2272.35	9865.54
2273.29	9861.53
2274.23	9875.34
2275.17	9886.21
2276.11	9891.05
2277.05	9890.46
2277.99	9867.57
2278.93	9846.91
2279.86	9830.55
2280.8	9814.63
2281.74	9811.67
2282.68	9815.33
2283.62	9820.29
2284.56	9826.79
2285.5	9832.7
2286.44	9834.38
2287.37	9831.98
2288.31	9827.81
2289.25	9822.39
2290.19	9815.66
2291.12	9807.75
2292.06	9799.25
2293	9789.97
2293.94	9779.79
2294.87	9769.96
2295.81	9760.24
2296.75	9758.72
2297.68	9764.82
2298.62	9773.24
2299.55	9763.53
2300.49	9751.83
2301.43	9742.49
2302.36	9729.82
2303.3	9715
2304.23	9700.95
2305.17	9689.07
2306.1	9679.12
2307.04	9673.1
2307.98	9666.96
2308.91	9658.82
2309.84	9650.01
2310.78	9642.04
2311.71	9634.84
2312.65	9628.51
2313.58	9623.67
2314.52	9620.87
2315.45	9613.01
2316.38	9603.3
2317.32	9591.13
2317.72	9584.91
2318.66	9575.25
2319.6	9572.09
2320.54	9568.17
2321.48	9559.06
2322.41	9547.25
2323.35	9533.11
2324.29	9516.87
2325.23	9502.75
2326.16	9499.11
2327.1	9494.96
2328.04	9492.86
2328.97	9493.4
2329.91	9493.68
2330.85	9493.08
2331.78	9484.13
2332.72	9467.23
2333.66	9442.89
2334.59	9423.2
2335.53	9408.27
2336.46	9393.23
2337.4	9382.05
2338.33	9373.75
2339.27	9367.57
2340.2	9362.62
2341.14	9358.28
2342.07	9352.85
2343.01	9343.98
2343.94	9331.09
2344.88	9319.92
2345.81	9307.29
2346.75	9298.24
2347.68	9297.06
2348.61	9302.26
2349.55	9304.46
2350.48	9307.17
2351.41	9306.9
2352.35	9300.2
2353.28	9291.75
2354.21	9276.04
2355.15	9266.04
2356.08	9252.85
2357.01	9248.57
2357.94	9252.88
2358.88	9264.45
2359.81	9272.96
2360.74	9266.1
2361.67	9256.89
2362.6	9244.33
2363.54	9229.07
2364.47	9212.01
2365.4	9206.01
2366.33	9207.3
2367.26	9219.58
2368.19	9225.36
2369.12	9213.45
2370.05	9192.59
2370.98	9161.02
2371.91	9141.21
2372.84	9124.88
2373.77	9111.23
2374.7	9108.9
2375.63	9111.93
2376.56	9112.59
2377.49	9112.99
2378.42	9113.87
2379.35	9113.59
2380.28	9112.58
2381.21	9111.12
2382.14	9108.98
2383.07	9106.23
2384	9102.3
2384.92	9096.19
2385.85	9088.32
2386.78	9078.72
2387.71	9069.21
2388.64	9057.91
2389.56	9053.1
2390.49	9049.21
2391.42	9046.16
2392.35	9044.01
2393.27	9042.12
2394.2	9041.53
2395.13	9036.8
2396.05	9032.96
2396.98	9021.38
2397.91	8999.44
2398.83	8985.25
2399.76	8965.87
2400.69	8951.51
2401.61	8955.48
2402.54	8959.29
2403.46	8973.94
2404.39	8981.39
2405.31	8979.49
2406.24	8968.24
2407.17	8945.05
2408.09	8923.15
2409.01	8907.06
2409.94	8893.39
2410.86	8897.24
2411.79	8884.96
2412.71	8878.44
2413.64	8857.07
2414.56	8833.23
2415.49	8815.2
2416.41	8806.67
2417.33	8807.67
2418.26	8819.98
2419.18	8828.12
2420.1	8836.54
2421.03	8815.08
2421.95	8802.72
2422.87	8788.05
2423.79	8772.08
2424.72	8753.52
2425.64	8735.3
2426.56	8729.8
2427.48	8732.91
2428.41	8742.32
2429.33	8755.32
2430.25	8771.28
2431.17	8750.89
2432.09	8711.89
2433.01	8690.03
2433.93	8670.58
2434.86	8653.17
2435.78	8640.14
2436.7	8633.09
2437.62	8630.47
2438.54	8634.91
2439.46	8643.16
2440.38	8744.77
2441.3	8605.68
2442.22	8588.36
2443.14	8569.72
2444.06	8549.58
2444.98	8576.29
2445.9	8583.42
2446.82	8565.7
2447.73	8543.28
2448.65	8524.62
2449.57	8509.39
2450.49	8497.22
2451.41	8488.3
2452.33	8482.52
2453.25	8480.09
2454.17	8481.25
2455.08	8486.53
2456	8480.51
2456.92	8470.46
2457.84	8461.3
2458.75	8445.8
2459.67	8431.59
2460.59	8421.83
2461.51	8422.3
2462.42	8442.85
2463.34	8441.73
2464.26	8436.1
2465.17	8402.59
2466.09	8369
2467	8347.91
2467.92	8333.52
2468.84	8351.07
2469.75	8357.25
2470.67	8359.55
2471.58	8361.14
2472.5	8360.53
2473.42	8352.41
2474.33	8332.64
2475.25	8317.06
2476.16	8308.12
2477.08	8304.68
2477.99	8305.13
2478.9	8303.39
2479.82	8300.73
2480.73	8296.78
2481.65	8291.71
2482.56	8285.68
2483.47	8278.96
2484.39	8271.49
2485.3	8263.72
2486.22	8273.97
2487.13	8247.72
2488.04	8219.3
2488.96	8195.92
2489.87	8178.61
2490.78	8175.54
2491.69	8182.82
2492.61	8187.15
2493.52	8189.17
2494.43	8188.39
2495.34	8184.7
2496.25	8177.63
2497.17	8167.18
2498.08	8154.28
2498.99	8138.58
2499.9	8129.04
2500.81	8131.49
2501.72	8149.93
2502.63	8161.41
2503.55	8177.04
2504.46	8185.19
2505.37	8177.74
2506.28	8168.93
2507.19	8161.33
2508.1	8153.49
2509.01	8144.17
2509.92	8132.36
2510.83	8118.45
2511.74	8099.91
2512.65	8083.83
2513.56	8073.38
2514.47	8066.48
2515.37	8062.03
2516.28	8059.55
2517.19	8059.1
2518.1	8059.75
2519.01	8060.64
2519.92	8059.49
2520.83	8052.32
2521.73	8042.8
2522.64	8031.93
2523.55	8020.2
2524.46	8009.32
2525.37	8002.07
2526.27	8004.33
2527.18	8006.26
2528.09	8009.91
2529	8014.4
2529.9	8020.06
2530.81	8010.7
2531.72	8004.49
2532.62	7985.27
2533.53	7968.23
2534.44	7953.46
2535.34	7943.58
2536.25	7936.81
2537.15	7931.97
2538.06	7926.33
2538.96	7922.31
2539.87	7919.1
2540.78	7916.71
2541.68	7914.87
2542.59	7913.7
2543.49	7911.87
2544.4	7904.25
2545.3	7893.28
2546.21	7881.77
2547.11	7868.77
2548.01	7854.54
2548.92	7838.6
2549.82	7821.16
2550.73	7801.14
2551.63	7788.78
2552.53	7788.63
2553.44	7789.32
2554.34	7787.59
2555.24	7782.17
2556.15	7773.08
2557.05	7760.3
2557.95	7744.88
2558.86	7726.79
2559.76	7709.6
2560.66	7705.73
2561.56	7705.21
2562.46	7707.02
2563.37	7708.82
2564.27	7703.11
2565.17	7699.22
2566.07	7697.96
2566.97	7697.78
2567.88	7696.31
2568.78	7690.42
2569.68	7679.63
2570.58	7668.79
2571.48	7657.19
2572.38	7644.59
2573.28	7631.02
2574.18	7616.53
2575.08	7600.2
2575.98	7583.51
2576.88	7567.21
2577.78	7553.37
2578.68	7541.99
2579.58	7532.39
2580.48	7524.94
2581.38	7519.39
2582.28	7515.85
2583.18	7514.23
2584.08	7511.38
2584.98	7506.12
2585.88	7496.45
2586.77	7475.71
2587.67	7463.7
2588.57	7457.24
2589.47	7453.05
2590.37	7448.79
2591.27	7446.39
2592.16	7444.92
2593.06	7444.29
2593.96	7443.05
2594.86	7439.44
2595.75	7435.32
2596.65	7429.39
2597.55	7422.14
2598.45	7413.03
2599.34	7402.53
2600.24	7390.71
2601.13	7378.2
2602.03	7370.08
2602.93	7364.93
2603.82	7364.89
2604.72	7364.69
2605.62	7364.15
2606.51	7358.22
2607.41	7351.73
2608.3	7344.38
2609.2	7336.17
2610.09	7327.08
2610.99	7317.02
2611.88	7307.84
2612.78	7300.07
2613.67	7294.03
2614.57	7298.82
2615.46	7291.76
2616.36	7288.19
2617.25	7280.92
2618.14	7269.67
2619.04	7254.15
2619.93	7246.84
2620.83	7248.76
2621.72	7251.76
2622.61	7254.41
2623.5	7246.73
2624.4	7231.92
2625.29	7218.77
2626.18	7206.46
2627.08	7195.74
2627.97	7186.97
2628.86	7179.2
2629.75	7172.19
2630.65	7165.68
2631.54	7158.36
2632.43	7149.23
2633.32	7136.68
2634.21	7115.48
2635.11	7099.33
2636	7089.57
2636.89	7084.34
2637.78	7079.89
2638.67	7073.13
2639.56	7065.51
2640.45	7035.15
2641.34	7019.22
2642.23	7005.17
2643.12	6993.03
2644.01	6982.94
2644.9	6975.03
2645.79	6969.23
2646.68	6964.9
2647.57	6964.55
2648.46	6965.52
2649.35	6968.16
2650.24	6970.94
2651.13	6969.36
2652.02	6967.39
2652.91	6961.74
2653.8	6954.54
2654.69	6943.72
2655.58	6935.69
2656.46	6931.96
2657.35	6920.55
2658.24	6905.72
2659.13	6887.25
2660.02	6868.09
2660.9	6854.58
2661.79	6845.52
2662.68	6850.48
2663.57	6858.08
2664.45	6864.3
2665.34	6866.08
2666.23	6863.9
2667.11	6859.57
2668	6853.24
2668.89	6845.38
2669.77	6835.73
2670.66	6824.65
2671.55	6812.05
2672.43	6799.46
2673.32	6784.24
2674.21	6779.24
2675.09	6783.08
2675.98	6788.06
2676.86	6796.23
2677.75	6800.68
2678.63	6794.69
2679.52	6781.61
2680.4	6763.57
2681.29	6746.11
2682.17	6734.44
2683.06	6720.22
2683.94	6705.12
2684.82	6689.26
2685.71	6675.11
2686.59	6665.94
2687.48	6667.92
2688.36	6674.7
2689.24	6667.56
2690.13	6657.59
2691.01	6649.15
2691.89	6639.81
2692.78	6627.51
2693.66	6610.41
2694.54	6603.19
2695.43	6612.7
2696.31	6617.89
2697.19	6618.71
2698.07	6616.72
2698.96	6611.96
2699.84	6604.48
2700.72	6594.63
2701.6	6583.19
2702.48	6569.97
2703.36	6556.19
2704.25	6543.23
2705.13	6530.83
2706.01	6520.23
2706.89	6513.93
2707.77	6510.96
2708.65	6507.34
2709.53	6503.48
2710.41	6500.21
2711.29	6496.86
2712.17	6494.03
2713.05	6491.14
2713.93	6487.86
2714.81	6484.05
2715.69	6478.15
2716.57	6470.88
2717.45	6460.76
2718.33	6442.41
2719.21	6422.39
2720.09	6402.63
2720.97	6384.35
2721.85	6375.51
2722.73	6373.1
2723.61	6376.16
2724.48	6382.73
2725.36	6391.3
2726.24	6400.17
2727.12	6400.83
2728	6395.75
2728.88	6381.41
2729.75	6357.89
2730.63	6325.54
2731.51	6309.09
2732.39	6317.63
2733.26	6347.97
2734.14	6328.57
2735.02	6322.35
2735.89	6317.86
2736.77	6313.52
2737.65	6304.16
2738.52	6292.73
2739.4	6281.45
2740.28	6271.47
2741.15	6264.8
2742.03	6261.47
2742.9	6259.02
2743.78	6257.1
2744.65	6255.35
2745.53	6250.89
2746.41	6246.72
2747.28	6236.87
2748.16	6238.39
2749.03	6240.42
2749.91	6240.72
2750.78	6239.64
2751.66	6237.51
2752.53	6234.8
2753.4	6227.71
2754.28	6219.71
2755.15	6210.16
2756.02	6200.83
2756.9	6192.26
2757.77	6184.86
2758.65	6178.6
2759.52	6174.27
2760.39	6171.38
2761.27	6171.62
2762.14	6170.74
2763.01	6168.77
2763.88	6164.79
2764.76	6154.96
2765.63	6140.57
2766.5	6128.74
2767.37	6120.85
2768.25	6120.31
2769.12	6121.52
2769.99	6117.47
2770.86	6114.19
2771.73	6111
2772.61	6104.65
2773.48	6098.24
2774.35	6092.36
2775.22	6091.82
2776.09	6088.76
2776.96	6082.68
2777.83	6073.97
2778.7	6062.8
2779.57	6048.44
2780.44	6036.32
2781.31	6026.51
2782.18	6021.76
2783.05	6018.13
2783.92	6016.32
2784.79	6015.9
2785.66	6017.14
2786.53	6019.51
2787.4	6017.94
2788.27	6015.27
2789.14	5999.57
2790.01	5982.29
2790.88	5972.47
2791.75	5960.88
2792.62	5956.55
2793.48	5947.36
2794.35	5939.21
2795.22	5931.45
2796.09	5924.34
2796.96	5918.02
2797.82	5912.15
2798.69	5906.66
2799.56	5901.56
2800.43	5896.4
2801.29	5891.15
2802.16	5883.17
2803.03	5877.51
2803.9	5872.86
2804.76	5873.84
2805.63	5880.06
2806.5	5875.91
2807.36	5872.39
2808.23	5868.53
2809.09	5856.55
2809.96	5846.26
2810.83	5832.23
2811.69	5830.07
2812.56	5822.57
2813.42	5825.44
2814.29	5817.6
2815.15	5806.26
2816.02	5795.3
2816.88	5787.33
2817.75	5780.74
2818.61	5780.99
2819.48	5788.68
2820.34	5791.46
2821.21	5787.41
2822.07	5783.76
2822.94	5778.37
2823.8	5773.48
2824.66	5768.88
2825.53	5764.41
2826.39	5759.88
2827.26	5755.08
2828.12	5749.96
2828.98	5744.47
2829.85	5738.34
2830.71	5731.21
2831.57	5723.01
2832.43	5714.48
2833.3	5707.32
2834.16	5703.19
2835.02	5690.22
2835.88	5677.02
2836.75	5663.05
2837.61	5642.65
2838.47	5641.67
2839.33	5646.33
2840.19	5663.5
2841.06	5670.25
2841.92	5680.26
2842.78	5680.69
2843.64	5668.97
2844.5	5654.16
2845.36	5640.29
2846.22	5637.98
2847.08	5634.29
2847.94	5628.5
2848.81	5620.92
2849.67	5610.6
2850.53	5602.56
2851.39	5597.23
2852.25	5594.36
2853.11	5594.49
2853.97	5597.82
2854.82	5603.9
2855.68	5603.96
2856.54	5603.35
2857.4	5594.57
2858.26	5578.2
2859.12	5561.2
2859.98	5547.56
2860.84	5536.53
2861.7	5527.6
2862.56	5520.38
2863.41	5515.15
2864.27	5511.72
2865.13	5509.83
2865.99	5509.54
2866.85	5508.03
2867.7	5504.44
2868.56	5499
2869.42	5492.82
2870.28	5486.41
2871.13	5480.79
2871.99	5475.19
2872.85	5470.49
2873.7	5466.59
2874.56	5462.47
2875.42	5457.99
2876.27	5450.72
2877.13	5442.41
2877.99	5432.28
2878.84	5429.67
2879.7	5426.46
2880.56	5425
2881.41	5424.9
2882.27	5423.86
2883.12	5417.19
2883.98	5407.21
2884.83	5402.16
2885.69	5422.35
2886.54	5424.92
2887.4	5411.42
2888.25	5389.87
2889.11	5378.17
2889.96	5365.97
2890.82	5356.34
2891.67	5351.28
2892.52	5348.36
2893.38	5350.02
2894.23	5354.29
2895.09	5361.13
2895.94	5367.1
2896.79	5339.59
2897.65	5326.03
2898.5	5311.58
2899.35	5298.55
2900.21	5288.06
2901.06	5279.71
2901.91	5272.45
2902.76	5266.43
2903.62	5261.53
2904.47	5257.44
2905.32	5254.67
2906.17	5253.13
2907.03	5251.46
2907.88	5248.43
2908.73	5242.17
2909.58	5234.27
2910.43	5224.91
2911.28	5216.67
2912.14	5211.58
2912.99	5203.94
2913.84	5207.08
2914.69	5208.95
2915.54	5210.26
2916.39	5211.25
2917.24	5210.25
2918.09	5203.43
2918.94	5194.6
2919.79	5183.97
2920.64	5171.34
2921.49	5158.95
2922.34	5154.81
2923.19	5149.71
2924.04	5145.83
2924.89	5142.58
2925.74	5142.21
2926.59	5129.52
2927.44	5114.71
2928.29	5097.15
2929.14	5078.74
2929.98	5074.94
2930.83	5090.19
2931.68	5091.71
2932.53	5099.65
2933.38	5061.22
2934.23	5042.93
2935.07	5046.54
2935.92	5057.91
2936.77	5060.79
2937.62	5056.35
2938.47	5051.78
2939.31	5046.72
2940.16	5034.6
2941.01	5027.71
2941.85	5018.18
2942.7	5007.3
2943.55	4998.47
2944.39	4997.8
2945.24	5005.37
2946.09	5005.88
2946.93	5006.89
2947.78	5006.27
2948.63	5003.84
2949.47	4998.96
2950.32	4991.74
2951.16	4982.71
2952.01	4971.95
2952.85	4961.16
2953.7	4952.53
2954.55	4943.78
2955.39	4939.6
2956.24	4935.3
2957.08	4930.52
2957.92	4925.17
2958.77	4918.91
2959.61	4912.04
2960.46	4904.42
2961.3	4895.99
2962.15	4890.66
2962.99	4889.37
2963.83	4891.41
2964.68	4890.98
2965.52	4887.34
2966.37	4881.45
2967.21	4867.5
2968.05	4863.56
2968.9	4858.5
2969.74	4859.67
2970.58	4859.32
2971.42	4862.5
2972.27	4863.85
2973.11	4857.88
2973.95	4846.85
2974.79	4826.58
2975.64	4815.42
2976.48	4813.25
2977.32	4816.63
2978.16	4820.01
2979	4823.24
2979.85	4826.14
2980.69	4825.8
2981.53	4822.51
2982.37	4811.96
2983.21	4803.05
2984.05	4795.05
2984.89	4789.2
2985.73	4785.33
2986.57	4782.54
2987.41	4781.38
2988.25	4782.1
2989.1	4784.45
2989.94	4788.69
2990.77	4794.01
2991.62	4795.91
2992.45	4795.1
2993.29	4789.94
2994.13	4783.99
2994.97	4776.41
2995.81	4767.11
2996.65	4757.67
2997.49	4745.96
2998.33	4761.63
2999.17	4756.01
