200.833	18368
202.102	18377.4
203.371	18368
204.639	18391.6
205.907	18421.3
207.175	18435.4
208.442	18423.6
209.71	18418.3
210.977	18418.7
212.244	18425.3
213.511	18436.9
214.777	18455.8
216.042	18483.6
217.309	18513.4
218.575	18545.7
219.84	18580.9
221.106	18617.2
222.371	18650.8
223.635	18690.4
224.9	18714.9
226.165	18736.7
227.429	18751.7
228.694	18778.6
229.956	18810.1
231.22	18850.2
232.484	18891.8
233.747	18946.4
235.011	18997.1
236.272	19046.2
237.535	19091.8
238.798	19132
240.06	19169.7
241.321	19187.9
242.583	19186
243.845	19207.1
245.105	19245.4
246.367	19303.4
247.628	19370
248.888	19343.1
250.149	19333.5
251.409	19326.9
252.67	19322.9
253.928	19322.2
255.189	19322.4
256.447	19334.8
257.707	19348.1
258.966	19359.7
260.224	19365.3
261.483	19363.7
262.742	19373.4
263.999	19391.9
265.257	19419.8
266.514	19443.5
267.772	19470.8
269.028	19498.9
270.286	19526.4
271.543	19553.7
272.799	19580.9
274.056	19607.8
275.311	19634.6
276.568	19655.6
277.823	19660
279.079	19668.1
280.333	19684.9
281.589	19723.9
282.843	19752.4
284.099	19779.6
285.352	19803.5
286.607	19830.5
287.86	19836.4
289.114	19830
290.368	19834.4
291.621	19848.3
292.875	19878.6
294.127	19964.5
295.38	19981.6
296.632	19985.1
297.884	19984.3
299.137	19982.2
300.388	19983.8
301.641	19989
302.891	20026.2
304.142	20056.9
305.394	20085.7
306.644	20115.5
307.894	20131.7
309.146	20069
310.395	20066.5
311.645	20067.3
312.895	20071.2
314.144	20079.9
315.393	20096.4
316.642	20118.8
317.892	20153.1
319.14	20200.2
320.388	20259
321.637	20256
322.885	20246.8
324.132	20276.4
325.38	20295.6
326.628	20315.8
327.875	20339.9
329.122	20364.3
330.368	20388.9
331.614	20413.3
332.862	20432
334.108	20440.8
335.353	20445.8
336.599	20446.3
337.844	20441.8
339.089	20433.3
340.335	20442.9
341.58	20458
342.824	20495
344.068	20522.2
345.312	20523.6
346.556	20520.4
347.8	20525.5
349.043	20546.3
350.286	20568.2
351.53	20587.4
352.774	20603.2
354.016	20615.2
355.259	20624.2
356.501	20630.1
357.743	20631.6
358.985	20629
360.227	20622.5
361.468	20616
362.709	20615.6
363.95	20618.4
365.191	20625
366.432	20634.6
367.672	20647.9
368.912	20664.9
370.152	20685.2
371.392	20709.7
372.632	20736
373.871	20752.1
375.11	20738.2
376.348	20727.2
377.587	20721.3
378.825	20721.1
380.064	20728.1
381.302	20759.1
382.54	20783.2
383.778	20829.6
385.016	20850.6
386.253	20865.5
387.489	20850.8
388.726	20836.2
389.963	20823.7
391.199	20816.8
392.436	20833.2
393.672	20870.5
394.907	20905.9
396.142	20953.4
397.378	20976.7
398.614	21000.2
399.849	20995.4
401.082	20987.1
402.317	20979.3
403.552	20973.8
404.786	20974.2
406.019	20988.3
407.253	21000.9
408.487	21042.3
409.721	21068.3
410.953	21083.5
412.186	21087.7
413.419	21087.6
414.651	21101.6
415.883	21115
417.116	21126.6
418.347	21136.3
419.579	21142.5
420.811	21143.8
422.041	21139.8
423.272	21131.8
424.504	21119.1
425.733	21104.4
426.964	21092.2
428.194	21096
429.424	21106.6
430.654	21125.9
431.883	21152.2
433.113	21174.3
434.341	21194.2
435.571	21203.9
436.799	21184.6
438.028	21176.9
439.257	21188.1
440.484	21212.2
441.713	21250.9
442.94	21293.2
444.168	21321.8
445.394	21342.3
446.622	21310
447.848	21303.5
449.076	21292.1
450.301	21285.2
451.528	21298
452.754	21307.7
453.979	21317.7
455.205	21330.1
456.43	21333.6
457.656	21334.2
458.88	21333
460.106	21329.4
461.33	21322.8
462.554	21314.3
463.779	21327.4
465.002	21331.5
466.225	21328.7
467.45	21321.3
468.672	21309.4
469.895	21306.9
471.119	21322.7
472.341	21353.6
473.563	21384.7
474.786	21334.4
476.008	21319.8
477.229	21305.8
478.452	21294.2
479.673	21283.4
480.894	21275.3
482.115	21278.6
483.337	21282.5
484.557	21287.2
485.777	21290.7
486.997	21290.9
488.218	21289.5
489.438	21286.3
490.657	21280.2
491.876	21270.9
493.096	21256.2
494.315	21225.5
495.533	21208.5
496.752	21202.8
497.97	21206.6
499.188	21232.7
500.407	21259.7
501.625	21281.3
502.842	21297
504.059	21298.7
505.276	21296.6
506.493	21297.6
507.71	21298.7
508.926	21300.6
510.142	21300.6
511.358	21303.8
512.575	21270.9
513.791	21362.7
515.006	21421.4
516.222	21429.6
517.437	21399
518.651	21375.5
519.866	21330.6
521.081	21345.6
522.295	21397.1
523.509	21400.5
524.723	21402.9
525.937	21411.4
527.15	21424.8
528.363	21442.6
529.576	21457.3
530.789	21465.6
532.002	21449.1
533.215	21450.6
534.426	21466.9
535.638	21474.4
536.85	21476.9
538.061	21480.4
539.273	21483.5
540.484	21482
541.695	21482.1
542.906	21483.7
544.117	21487.3
545.327	21499.3
546.537	21522.1
547.747	21549.7
548.957	21575.5
550.167	21576.7
551.377	21563.6
552.585	21550.6
553.794	21526.8
555.003	21498.2
556.212	21480.8
557.421	21473.5
558.628	21482.1
559.836	21508.4
561.044	21535.8
562.252	21552.9
563.458	21553.4
564.666	21554.3
565.873	21552.4
567.08	21549.8
568.286	21548.2
569.493	21545.6
570.699	21542.9
571.904	21539
573.111	21533.7
574.317	21525.2
575.521	21494.1
576.727	21483.1
577.932	21498.7
579.136	21510.9
580.341	21521.4
581.544	21529.7
582.749	21536.9
583.954	21548.2
585.156	21560.2
586.361	21572.1
587.563	21587.9
588.767	21607.8
589.97	21621.8
591.172	21611.1
592.375	21597.3
593.577	21587.7
594.78	21584.7
595.981	21586.3
597.183	21599.2
598.384	21617.4
599.586	21614.5
600.786	21596.9
601.988	21574.5
603.188	21559.1
604.389	21541.5
605.589	21525.8
606.79	21511.8
607.989	21499.6
609.188	21489.1
610.389	21479.7
611.587	21471.5
612.787	21464
613.986	21455.8
615.184	21448.3
616.383	21440.8
617.581	21430.3
618.78	21419.6
619.977	21411
621.174	21404.1
622.373	21400.5
623.57	21396
624.766	21390.2
625.964	21380.4
627.16	21348.2
628.356	21321.8
629.554	21304.7
630.749	21291.3
631.945	21282.6
633.14	21274.1
634.337	21271.1
635.532	21268.8
636.726	21267.2
637.921	21264.5
639.117	21252.7
640.311	21251.5
641.505	21250.3
642.699	21247.8
643.892	21243.6
645.087	21235.7
646.28	21230.3
647.473	21224.8
648.666	21220.8
649.859	21215.5
651.051	21213.7
652.245	21221.5
653.437	21245.5
654.629	21297.5
655.821	21326.9
657.012	21353.8
658.204	21304.8
659.395	21293.2
660.586	21290.4
661.777	21284.8
662.967	21284.1
664.158	21288.9
665.349	21302.4
666.539	21323.8
667.729	21355.3
668.919	21379.6
670.109	21384
671.298	21385
672.487	21380.4
673.676	21359.7
674.865	21324.3
676.053	21333.8
677.242	21345.3
678.43	21353.3
679.616	21357.1
680.804	21358.7
681.992	21342
683.179	21323.3
684.366	21311.5
685.554	21301.2
686.74	21304.7
687.927	21311.7
689.114	21315.7
690.3	21315.3
691.486	21311.4
692.671	21303.7
693.856	21292
695.042	21276.2
696.227	21256.4
697.413	21230.4
698.598	21200.9
699.781	21171.9
700.966	21142.9
702.15	21149.5
703.334	21160
704.518	21186.1
705.701	21197.1
706.885	21186.9
708.068	21156.2
709.252	21146.8
710.433	21137.3
711.616	21128.8
712.799	21119.1
713.98	21129.2
715.163	21129.5
716.345	21118.7
717.527	21099.6
718.707	21088.3
719.889	21084.4
721.071	21085
722.25	21089
723.432	21096.1
724.611	21104.8
725.792	21117.3
726.972	21109.3
728.151	21097.4
729.332	21066.1
730.512	21078.8
731.69	21094.9
732.87	21108.6
734.048	21124
735.227	21140.9
736.405	21158
737.584	21178.1
738.761	21198.8
739.94	21221.5
741.117	21241.3
742.295	21234.1
743.471	21222.8
744.649	21189.6
745.825	21169.7
747.003	21143.1
748.179	21128.6
749.356	21118.5
750.531	21135.1
751.708	21158.3
752.883	21180
754.059	21197.8
755.234	21203.8
756.409	21207.5
757.585	21207.2
758.759	21202.6
759.934	21195.2
761.108	21186.3
762.282	21184.2
763.456	21193.8
764.63	21200.3
765.803	21208.9
766.977	21198.3
768.15	21194.2
769.323	21170.6
770.496	21129.4
771.668	21095.7
772.841	21066.2
774.014	21040.7
775.185	21016
776.357	21009.2
777.528	21012.7
778.701	21014.3
779.872	21021
781.042	21010.7
782.213	20990.5
783.383	20970.4
784.555	20950.1
785.725	20929.9
786.895	20909.5
788.064	20888.9
789.234	20868.6
790.404	20852.4
791.573	20847
792.742	20849.2
793.911	20862
795.08	20878.3
796.248	20888.2
797.416	20890.7
798.584	20883.3
799.753	20868.5
800.921	20841.6
802.088	20825.2
803.256	20818.3
804.423	20823.7
805.59	20842.7
806.756	20863.5
807.923	20867
809.089	20857.6
810.256	20848.8
811.422	20839.5
812.587	20828.7
813.753	20818
814.918	20809.5
816.084	20817.7
817.249	20828.8
818.414	20835.5
819.578	20839.5
820.743	20841.1
821.907	20841.1
823.072	20837.2
824.236	20831.3
825.399	20823.6
826.562	20814.6
827.725	20810.8
828.889	20809.4
830.052	20830.4
831.215	20852.8
832.377	20873.5
833.54	20881.6
834.701	20888.1
835.863	20891.8
837.025	20886.2
838.187	20867.1
839.349	20857.4
840.51	20859.8
841.67	20877.2
842.831	20897.6
843.992	20908.5
845.153	20916.3
846.312	20891.1
847.473	20881.7
848.633	20874.6
849.793	20868.8
850.951	20863.2
852.111	20856.6
853.27	20849
854.428	20839
855.588	20826.2
856.747	20810
857.904	20789.1
859.063	20764
860.221	20735.8
861.378	20708.9
862.536	20698.5
863.694	20695.9
864.85	20697
866.008	20688.8
867.164	20677.5
868.321	20662.6
869.478	20646.2
870.633	20626.5
871.79	20604.9
872.945	20582.4
874.101	20559.4
875.256	20553.6
876.412	20535.4
877.566	20498.6
878.722	20460.3
879.876	20429
881.031	20410.5
882.185	20404.7
883.34	20412.3
884.493	20438.1
885.647	20459.1
886.8	20464.4
887.954	20459.5
889.107	20443.6
890.261	20424.6
891.413	20409.4
892.565	20418.8
893.718	20423.7
894.87	20415.3
896.023	20402.8
897.174	20346.4
898.326	20315.6
899.478	20322.9
900.629	20321.2
901.779	20323.3
902.931	20331.5
904.081	20345.1
905.231	20368.6
906.383	20394.8
907.532	20428.4
908.682	20448.7
909.831	20427.1
910.982	20416.3
912.131	20409.4
913.28	20407.5
914.429	20409.2
915.578	20417.6
916.727	20430.1
917.875	20444.8
919.023	20452.7
920.171	20447.8
921.32	20434.7
922.467	20408.7
923.614	20377.4
924.761	20354.2
925.908	20346.4
927.055	20348.6
928.203	20357.5
929.349	20367.9
930.496	20381.5
931.642	20323.3
932.787	20322.8
933.933	20333.5
935.079	20350.2
936.224	20369.8
937.369	20384.8
938.514	20393.1
939.659	20390.7
940.804	20378.7
941.948	20359.1
943.092	20337.2
944.236	20326.4
945.38	20318.6
946.524	20309.1
947.667	20294
948.811	20268.6
949.954	20242.6
951.097	20219.7
952.24	20199.9
953.383	20203.6
954.525	20202
955.667	20192.8
956.81	20179.4
957.952	20162.8
959.093	20148.9
960.235	20141.1
961.376	20145.1
962.516	20153.5
963.658	20159.3
964.798	20159.1
965.939	20148.5
967.08	20129.2
968.22	20105.2
969.359	20076
970.499	20065.9
971.639	20070.7
972.779	20089.1
973.918	20101.9
975.056	20109.9
976.195	20113.7
977.334	20116.7
978.473	20113.6
979.61	20094.5
980.749	20065
981.887	20045.4
983.024	20026
984.162	20034.3
985.3	20046.9
986.437	20062.6
987.573	20075.3
988.711	20082
989.848	20083
990.983	20077.7
992.12	20067.6
993.255	20053.6
994.392	20035.9
995.528	20032
996.662	20034.2
997.798	20042.5
998.933	20055.2
1000.07	20072
1001.2	20096.3
1002.34	20109.8
1003.47	20105.1
1004.61	20091.9
1005.74	20081.7
1006.87	20062.6
1008.01	20055.9
1009.14	20049.6
1010.27	20064.3
1011.41	20089
1012.54	20092.4
1013.67	20076.2
1014.81	20016.4
1015.94	20014.1
1017.07	20026.4
1018.2	20036.5
1019.33	20042.2
1020.47	20038.1
1021.6	20031.5
1022.73	20024.7
1023.86	20015.5
1024.99	20004
1026.12	19990.5
1027.25	19974.7
1028.38	19956.6
1029.51	19936.4
1030.64	19913.7
1031.77	19888.5
1032.9	19861.3
1034.03	19833.3
1035.16	19809
1036.29	19808.1
1037.42	19811.1
1038.55	19809.3
1039.67	19801.6
1040.8	19789.1
1041.93	19773.8
1043.06	19753.4
1044.19	19729.9
1045.31	19700.5
1046.44	19672.9
1047.57	19667.7
1048.69	19662.4
1049.82	19659.3
1050.95	19656
1052.08	19651.9
1053.2	19645.5
1054.33	19637.2
1055.45	19626.7
1056.58	19611.4
1057.7	19595.4
1058.83	19580.5
1059.95	19569.1
1061.08	19567.1
1062.2	19568.6
1063.33	19572.3
1064.45	19578
1065.58	19583.8
1066.7	19583.4
1067.83	19578.7
1068.95	19572.9
1070.07	19566.1
1071.2	19558.4
1072.32	19548.3
1073.44	19537.5
1074.56	19525
1075.69	19516.5
1076.81	19519.4
1077.93	19522.8
1079.05	19521.9
1080.17	19517.1
1081.3	19507.6
1082.42	19508.4
1083.54	19515.8
1084.66	19521.2
1085.78	19527.1
1086.9	19532.8
1088.02	19530.6
1089.14	19528.9
1090.26	19527.7
1091.38	19527.4
1092.5	19527.2
1093.62	19534.9
1094.74	19563.1
1095.86	19583.9
1096.98	19592.5
1098.1	19579.7
1099.22	19548.7
1100.34	19523.1
1101.45	19501.5
1102.57	19500.2
1103.69	19496.4
1104.81	19498
1105.93	19504.7
1107.04	19517.2
1108.16	19533.8
1109.28	19525.8
1110.4	19495.9
1111.51	19462.6
1112.63	19429.3
1113.75	19393.7
1114.86	19358.3
1115.98	19341.8
1117.09	19326.1
1118.21	19315.7
1119.32	19304.9
1120.44	19288.2
1121.55	19268.2
1122.67	19257
1123.78	19247.2
1124.9	19264.5
1126.01	19300.7
1127.13	19285.4
1128.24	19245.1
1129.35	19167.9
1130.47	19134
1131.58	19125.9
1132.7	19141.1
1133.81	19152.5
1134.92	19106.7
1136.03	19075.5
1137.15	19039.5
1138.26	19004.4
1139.37	18978.5
1140.48	18960.9
1141.59	18952.3
1142.71	18952.1
1143.82	18961
1144.93	18975.1
1146.04	18980.2
1147.15	18979.7
1148.26	18960.3
1149.37	18931
1150.48	18863.2
1151.59	18830.7
1152.7	18815.7
1153.81	18809.4
1154.92	18807
1156.03	18814.9
1157.14	18823.5
1158.25	18818.5
1159.36	18807.7
1160.47	18790.6
1161.58	18767.7
1162.68	18748
1163.79	18733.6
1164.9	18723
1166.01	18716.6
1167.12	18716.4
1168.22	18723.2
1169.33	18740.2
1170.44	18762.2
1171.55	18790.4
1172.65	18824.8
1173.76	18817.1
1174.87	18805.5
1175.97	18782.2
1177.08	18778.7
1178.18	18795.8
1179.29	18815.7
1180.4	18826.9
1181.5	18832.8
1182.61	18832.8
1183.71	18833.2
1184.82	18815.1
1185.92	18794.9
1187.02	18773.2
1188.13	18752.5
1189.23	18741.9
1190.34	18733.9
1191.44	18726.4
1192.54	18723.8
1193.65	18725
1194.75	18737.6
1195.85	18791.3
1196.96	18835.8
1198.06	18854.8
1199.16	18853.8
1200.26	18856.1
1201.37	18850.3
1202.47	18831.6
1203.57	18813.2
1204.67	18792.7
1205.77	18784
1206.87	18775.1
1207.97	18767.4
1209.08	18760.7
1210.18	18755.3
1211.28	18750.6
1212.38	18744.7
1213.48	18722
1214.58	18701.5
1215.68	18694.8
1216.78	18696.4
1217.88	18703.6
1218.98	18715
1220.07	18724.2
1221.17	18726.9
1222.27	18721.3
1223.37	18701.5
1224.47	18681.5
1225.57	18656.8
1226.66	18630.4
1227.76	18616.7
1228.86	18610.7
1229.96	18612.5
1231.06	18618.1
1232.15	18609
1233.25	18600
1234.35	18585.5
1235.44	18569
1236.54	18550.4
1237.63	18529.7
1238.73	18506.5
1239.83	18480.9
1240.92	18452.6
1242.02	18423.5
1243.11	18398.9
1244.21	18391.6
1245.3	18384.9
1246.4	18384
1247.49	18388
1248.59	18399.3
1249.68	18411.3
1250.78	18412.6
1251.87	18408.9
1252.96	18399.4
1254.06	18383.6
1255.15	18370.9
1256.24	18356.5
1257.34	18349.4
1258.43	18349.1
1259.52	18344.5
1260.62	18340.8
1261.71	18337.2
1262.8	18334.1
1263.89	18331.4
1264.98	18329.3
1266.08	18329.2
1267.17	18331.2
1268.26	18337.1
1269.35	18343.1
1270.44	18347.9
1271.53	18351.7
1272.62	18353.7
1273.71	18354.7
1274.8	18352.8
1275.89	18345.2
1276.98	18333.9
1278.07	18324.2
1279.16	18315.9
1280.25	18310.3
1281.34	18316.6
1282.43	18325.4
1283.52	18335.2
1284.61	18345.5
1285.69	18354.6
1286.78	18352.5
1287.87	18350.1
1288.96	18346.4
1290.05	18342.4
1291.13	18341.6
1292.22	18350.9
1293.31	18358.3
1294.4	18365.6
1295.48	18372.7
1296.57	18378.2
1297.66	18379.4
1298.74	18376.5
1299.83	18370.9
1300.92	18365.1
1302	18360.9
1303.09	18359.3
1304.17	18357.3
1305.26	18347.9
1306.34	18336.5
1307.43	18324.1
1308.51	18310
1309.6	18293.8
1310.68	18276.1
1311.76	18269.7
1312.85	18263.7
1313.93	18255.7
1315.02	18245.5
1316.1	18237.5
1317.18	18236.7
1318.27	18237.6
1319.35	18234.8
1320.43	18230
1321.52	18222
1322.6	18209.2
1323.68	18212.8
1324.76	18217.8
1325.85	18213.8
1326.93	18202.8
1328.01	18184.4
1329.09	18170
1330.17	18160.7
1331.25	18158.2
1332.33	18152.4
1333.41	18147.9
1334.49	18145
1335.58	18141.4
1336.65	18132.8
1337.74	18118.1
1338.82	18112.3
1339.89	18111.7
1340.97	18133.8
1342.05	18100.4
1343.13	18074.8
1344.21	18049.1
1345.29	18035.3
1346.37	18024
1347.45	18013.1
1348.53	18005.7
1349.6	18005.6
1350.68	18011.1
1351.76	18024.6
1352.84	18034
1353.92	18039.3
1354.99	18037.1
1356.07	18028.4
1357.15	18012.9
1358.22	17998.7
1359.3	17991.4
1360.38	17994.8
1361.45	17999.9
1362.53	18004.1
1363.61	18006.1
1364.68	18006.1
1365.76	18006.2
1366.83	18006.8
1367.91	18007.5
1368.98	18008.4
1370.06	18008
1371.13	18003.3
1372.21	17995.7
1373.28	17985.5
1374.35	17976.6
1375.43	17969.1
1376.5	17964.4
1377.58	17962.7
1378.65	17963.7
1379.72	17965.4
1380.8	17966.3
1381.87	17973.3
1382.94	17982.8
1384.01	17985
1385.09	17979.5
1386.16	17955.2
1387.23	17935.4
1388.3	17921.9
1389.38	17904.4
1390.45	17886.3
1391.52	17868.7
1392.59	17852.5
1393.66	17837.7
1393.92	17833.2
1395	17823.2
1396.07	17820.4
1397.15	17824.5
1398.22	17831.4
1399.3	17839.5
1400.38	17838.3
1401.45	17834.9
1402.53	17829.6
1403.6	17817.4
1404.68	17799
1405.75	17782.9
1406.82	17770.3
1407.9	17780.5
1408.97	17787
1410.05	17793.3
1411.12	17797
1412.19	17796.4
1413.27	17790.5
1414.34	17756.8
1415.41	17741.1
1416.49	17725.8
1417.56	17737.2
1418.63	17767.5
1419.7	17744.3
1420.78	17714.9
1421.85	17693.2
1422.92	17682.3
1423.99	17677.4
1425.06	17677.6
1426.14	17682.5
1427.21	17690.6
1428.28	17696
1429.35	17685.3
1430.42	17667.4
1431.49	17637.2
1432.56	17605.6
1433.63	17592.9
1434.7	17590
1435.77	17607.8
1436.84	17612.9
1437.91	17615.6
1438.98	17614.2
1440.05	17613.2
1441.12	17604.2
1442.18	17579.4
1443.25	17555
1444.32	17543.3
1445.39	17540.3
1446.46	17554
1447.53	17562.5
1448.59	17565.9
1449.66	17562.5
1450.73	17552.3
1451.8	17533.5
1452.86	17514.1
1453.93	17499.8
1455	17495.5
1456.06	17502.4
1457.13	17511.2
1458.2	17516.8
1459.26	17518.8
1460.33	17517.6
1461.39	17513.6
1462.46	17506.7
1463.52	17498.4
1464.59	17494.2
1465.65	17525.6
1466.72	17517.5
1467.78	17504.5
1468.85	17491.6
1469.91	17481.1
1470.98	17473.7
1472.04	17468.9
1473.1	17461.9
1474.17	17455
1475.23	17449.3
1476.3	17447.6
1477.36	17451.6
1478.42	17454.9
1479.48	17456.5
1480.55	17455.1
1481.61	17450.5
1482.67	17441.9
1483.73	17431.3
1484.8	17421.4
1485.86	17425.5
1486.92	17418.8
1487.98	17435.3
1489.04	17422.5
1490.1	17391.3
1491.17	17358.8
1492.23	17325.6
1493.29	17290.7
1494.35	17275.2
1495.41	17272.3
1496.47	17323.5
1497.53	17361.8
1498.59	17374.5
1499.65	17365.8
1500.71	17324
1501.77	17307
1502.83	17292.7
1503.88	17281.5
1504.94	17274
1506	17270.2
1507.06	17261
1508.12	17249.3
1509.18	17225.7
1510.23	17195.2
1511.29	17169
1512.35	17149.6
1513.41	17135.8
1514.47	17128.9
1515.52	17129.2
1516.58	17135.9
1517.64	17147.4
1518.69	17156.9
1519.75	17147.7
1520.81	17137.2
1521.86	17118.2
1522.92	17103.2
1523.97	17085.6
1525.03	17084.6
1526.08	17090.8
1527.14	17101.9
1528.2	17095.6
1529.25	17087.6
1530.31	17078.2
1531.36	17066.8
1532.42	17052.1
1533.47	17034.8
1534.52	17019.3
1535.58	17008.9
1536.63	17017.1
1537.69	17024.1
1538.74	17028.6
1539.79	17032.6
1540.84	17033.3
1541.9	16986.8
1542.95	16964.1
1544	16948.3
1545.06	16939.8
1546.11	16930.9
1547.16	16928.7
1548.21	16929.7
1549.27	16934.8
1550.32	16941.9
1551.37	16947.3
1552.42	16943.9
1553.47	16944.4
1554.52	16956
1555.57	16967.7
1556.62	16972.3
1557.67	16974.1
1558.72	16973.1
1559.77	16970.8
1560.82	16965.5
1561.87	16957.9
1562.92	16952
1563.97	16949.7
1565.02	16959.4
1566.07	16969.2
1567.12	16963.4
1568.17	16956.3
1569.22	16949.1
1570.27	16931.4
1571.32	16912.7
1572.36	16897.4
1573.41	16893.6
1574.46	16904.7
1575.51	16913.1
1576.56	16926.3
1577.6	16934.1
1578.65	16928.3
1579.7	16910.9
1580.74	16892.5
1581.79	16854.4
1582.84	16841
1583.88	16849.3
1584.93	16861.7
1585.98	16858
1587.02	16850.5
1588.07	16840.9
1589.11	16829.2
1590.16	16816.2
1591.2	16801.8
1592.25	16786.5
1593.29	16786.2
1594.34	16783.4
1595.38	16785.2
1596.43	16773.8
1597.47	16751.6
1598.52	16734.1
1599.56	16721.3
1600.6	16710.1
1601.65	16699.8
1602.69	16690.8
1603.73	16684.7
1604.78	16681.3
1605.82	16684.8
1606.86	16640.7
1607.91	16590.8
1608.95	16565.4
1609.99	16558.7
1611.03	16595.2
1612.08	16612.4
1613.12	16609.7
1614.16	16600.1
1615.2	16586.1
1616.24	16565.5
1617.28	16530.8
1618.32	16505.4
1619.36	16489.6
1620.41	16481.8
1621.45	16475
1622.49	16465.3
1623.53	16456.7
1624.57	16440
1625.61	16423.9
1626.65	16406.7
1627.69	16390
1628.73	16374.2
1629.76	16360.1
1630.8	16348.9
1631.84	16340.3
1632.88	16335.3
1633.92	16334.8
1634.96	16335.3
1636	16331.9
1637.03	16316.9
1638.07	16305.2
1639.11	16290.2
1640.15	16271.1
1641.19	16252.6
1642.22	16246.2
1643.26	16246.8
1644.3	16241.8
1645.33	16231.3
1646.37	16221.3
1647.41	16206.9
1648.44	16191.3
1649.48	16172.8
1650.52	16155.4
1651.55	16141.9
1652.59	16132.2
1653.62	16129.7
1654.66	16125
1655.69	16122
1656.73	16120
1657.76	16117.1
1658.8	16114.1
1659.83	16106.8
1660.87	16099.1
1661.9	16093.2
1662.93	16094.5
1663.97	16098.9
1665	16103.1
1666.04	16102.3
1667.07	16099.3
1668.1	16094.8
1669.14	16088.7
1670.17	16081.4
1671.2	16072.8
1672.23	16061.9
1673.27	16051.4
1674.3	16052.3
1675.33	16054.5
1676.36	16055.6
1677.39	16049.8
1678.43	16039.9
1679.46	16025.5
1680.49	16006.2
1681.52	15982.5
1682.55	15949.3
1683.58	15920.7
1684.61	15925.5
1685.64	15951
1686.67	15986.5
1687.7	15987.5
1688.73	15970.8
1689.76	15955.4
1690.79	15940.9
1691.82	15926.4
1692.85	15911.2
1693.88	15893.9
1694.91	15892.6
1695.94	15887.8
1696.97	15901.6
1698	15900.6
1699.02	15876.8
1700.05	15844.9
1701.08	15833.2
1702.11	15828.8
1703.14	15834.5
1704.16	15832.9
1705.19	15839
1706.22	15830
1707.25	15818.5
1708.27	15788.7
1709.3	15758.5
1710.33	15728.3
1711.35	15701.2
1712.38	15686.1
1713.41	15689.1
1714.43	15688.5
1715.46	15695.7
1716.48	15700.6
1717.51	15699.2
1718.53	15694
1719.56	15683.7
1720.58	15670.3
1721.61	15655.9
1722.63	15643.7
1723.66	15630.3
1724.68	15616.4
1725.71	15602.6
1726.73	15588.3
1727.75	15574
1728.78	15559.3
1729.8	15543.4
1730.83	15526.4
1731.85	15505.3
1732.87	15488
1733.89	15473.9
1734.92	15462.8
1735.94	15453.9
1736.96	15445.6
1737.98	15437.5
1739.01	15429.9
1740.03	15422.6
1741.05	15415.5
1742.07	15408.3
1743.09	15402.9
1744.12	15397.6
1745.14	15392.7
1746.16	15387.4
1747.18	15378.4
1748.2	15367.7
1749.22	15355.2
1750.24	15342.9
1751.26	15330.5
1752.28	15318
1753.3	15305.9
1754.32	15293.8
1755.34	15280.7
1756.36	15268.9
1757.38	15284.8
1758.4	15290.3
1759.42	15301.8
1760.44	15306.7
1761.45	15304.9
1762.47	15289.7
1763.49	15278.4
1764.51	15261.1
1765.53	15242.2
1766.55	15235
1767.56	15222.8
1768.58	15212.5
1769.6	15199.1
1770.61	15179.9
1771.63	15159.1
1772.65	15137.5
1773.67	15114.7
1774.68	15091.9
1775.7	15070
1776.72	15059.3
1777.73	15059.7
1778.75	15065.6
1779.76	15075.9
1780.78	15074.9
1781.79	15074.4
1782.81	15064.8
1783.83	15058.2
1784.84	15052.9
1785.85	15048.8
1786.87	15041.5
1787.88	15049.9
1788.9	15055.7
1789.91	15072.4
1790.93	15071.9
1791.94	15006.7
1792.95	14934.1
1793.97	14923.3
1794.98	14922.5
1796	14917.8
1797.01	14911.4
1798.02	14907.7
1799.03	14904
1800.05	14901
1801.06	14896.9
1802.07	14891.5
1803.08	14884.3
1804.1	14872.2
1805.11	14859.2
1806.12	14843.7
1807.13	14826.6
1808.14	14809.1
1809.15	14793.5
1810.17	14776.8
1811.18	14775.2
1812.19	14777.8
1813.2	14782.3
1814.21	14778.4
1815.22	14759.6
1816.23	14736.4
1817.24	14719.7
1818.25	14700.4
1819.26	14679.8
1820.27	14659.1
1821.28	14636.6
1822.29	14632.1
1823.3	14641.6
1824.3	14631.9
1825.31	14611.6
1826.32	14575.3
1827.33	14555.7
1828.34	14542.3
1829.35	14541.2
1830.35	14540.7
1831.36	14536.2
1832.37	14530.2
1833.38	14523.4
1834.38	14510.4
1835.39	14496.8
1836.4	14480.5
1837.41	14463
1838.41	14446.2
1839.42	14432
1840.43	14426.8
1841.43	14424.7
1842.44	14425.7
1843.44	14430
1844.45	14414.3
1845.46	14366.8
1846.46	14350.8
1847.47	14328.8
1848.47	14310.7
1849.48	14299.4
1850.48	14293.9
1851.49	14294
1852.49	14298.7
1853.49	14306.4
1854.5	14316.2
1855.5	14312.2
1856.51	14296.6
1857.51	14269.8
1858.51	14234.4
1859.52	14204.9
1860.52	14173.6
1861.52	14147.6
1862.53	14145.3
1863.53	14147.2
1864.53	14146.7
1865.54	14144.5
1866.54	14139.7
1867.54	14131.3
1868.54	14141.5
1869.54	14153.4
1870.55	14161
1871.55	14166.1
1872.55	14163.6
1873.55	14138.4
1874.55	14116.1
1875.55	14086.8
1876.55	14063.9
1877.55	14054.9
1878.55	14057.6
1879.55	14054.3
1880.56	14044.9
1881.55	14028.5
1882.56	14000.9
1883.55	13969
1884.55	13947.1
1885.55	13928.4
1886.55	13913.4
1887.55	13903.8
1888.55	13898.3
1889.55	13897
1890.55	13899.8
1891.55	13905.9
1892.55	13906.8
1893.54	13875.6
1894.54	13864.5
1895.54	13856
1896.54	13857.1
1897.54	13860.1
1898.53	13862.2
1899.53	13864
1900.53	13866.1
1901.52	13850.2
1902.52	13835.2
1903.52	13829.8
1904.51	13822.2
1905.51	13816.9
1906.51	13811.4
1907.5	13796
1908.5	13781.8
1909.49	13752.7
1910.49	13720.3
1911.49	13669.5
1912.48	13636.1
1913.48	13629.6
1914.47	13629.4
1915.46	13631.4
1916.46	13637.7
1917.45	13608.7
1918.45	13588.7
1919.44	13578.7
1920.44	13579.7
1921.43	13588.4
1922.43	13614.4
1923.42	13580.5
1924.41	13559.4
1925.41	13539.2
1926.4	13516.9
1927.39	13500.7
1928.38	13494.8
1929.38	13476.1
1930.37	13472.1
1931.36	13478.4
1932.35	13498.8
1933.35	13508.4
1934.34	13509.6
1935.33	13472.1
1936.32	13444.3
1937.31	13408.2
1938.3	13378
1939.29	13350.1
1940.29	13329.9
1941.28	13315
1942.27	13305.8
1943.26	13299.7
1944.25	13294.8
1945.24	13289.4
1946.23	13280.6
1947.22	13253.8
1948.21	13250.1
1949.2	13249.4
1950.19	13249.4
1951.18	13253.9
1952.17	13250
1953.16	13224.6
1954.14	13185.1
1955.13	13143.9
1956.12	13111.6
1957.11	13089.1
1958.1	13077.8
1959.09	13078.6
1960.07	13082.2
1961.06	13091.1
1962.05	13095.7
1963.04	13086.3
1964.02	13070.8
1965.01	13060.3
1966	13043.9
1966.99	13030.5
1967.97	13032.2
1968.96	13033
1969.95	13040.2
1970.93	13051.5
1971.92	13065.5
1972.9	13050.8
1973.89	13030.3
1974.88	13008.5
1975.86	12989.3
1976.85	12970
1977.83	12950.9
1978.82	12933.3
1979.8	12916.6
1980.79	12901
1981.77	12886.5
1982.76	12873.1
1983.74	12861.8
1984.72	12852.1
1985.71	12851.5
1986.69	12851.8
1987.67	12848.6
1988.66	12840.7
1989.64	12824.7
1990.62	12811
1991.61	12799.1
1992.59	12788.7
1993.57	12779.7
1994.56	12772
1995.54	12767.5
1996.52	12764.3
1997.5	12762.6
1998.49	12760.3
1999.47	12748.2
2000.45	12727.8
2001.43	12708.6
2002.41	12690.5
2003.39	12680.3
2004.38	12670.6
2005.36	12662.6
2006.34	12656.1
2007.32	12652.4
2008.3	12647.5
2009.28	12632.7
2010.26	12571.6
2011.24	12568.2
2012.22	12571.9
2013.2	12574.9
2014.18	12559.5
2015.16	12545.1
2016.14	12531.5
2017.12	12494.7
2018.1	12481.7
2019.07	12483.1
2020.05	12481.1
2021.03	12485.1
2022.01	12482.5
2022.99	12473.5
2023.97	12458.3
2024.95	12438.9
2025.92	12416.3
2026.9	12394.8
2027.88	12373.5
2028.86	12371.8
2029.83	12362.4
2030.81	12348.2
2031.79	12333
2032.76	12313.6
2033.74	12290.6
2034.72	12272.1
2035.69	12272.5
2036.67	12267.5
2037.65	12260.8
2038.62	12258.6
2039.6	12242.8
2040.57	12229
2041.55	12221.1
2042.52	12214
2043.5	12206.9
2044.47	12197.6
2045.45	12186.1
2046.42	12173.6
2047.4	12159.8
2048.37	12144.5
2049.35	12127.8
2050.32	12109.9
2051.29	12090.9
2052.27	12071.2
2053.24	12051.7
2054.21	12031.6
2055.19	12014.9
2056.16	12007
2057.13	12012.6
2058.11	12013.6
2059.08	12011.5
2060.05	12013
2061.02	12011.2
2062	12006.9
2062.97	12001.9
2063.94	11988.9
2064.91	11973.9
2065.89	11960.9
2066.86	11947.8
2067.83	11934.5
2068.8	11921.3
2069.77	11908
2070.74	11895
2071.71	11882.1
2072.68	11868.9
2073.65	11854.4
2074.62	11837.4
2075.59	11821.7
2076.56	11807.4
2077.53	11794.7
2078.5	11784.1
2079.47	11775
2080.44	11771.5
2081.41	11771.7
2082.38	11772.5
2083.35	11773.8
2084.32	11768.5
2085.29	11760.9
2086.26	11738.4
2087.23	11716.6
2088.19	11696
2089.16	11672.3
2090.13	11648.6
2091.1	11626.8
2092.07	11607.2
2093.03	11591.2
2094	11579.1
2094.97	11569.9
2095.94	11563
2096.9	11560
2097.87	11559.7
2098.84	11561.6
2099.8	11562.9
2100.77	11557.8
2101.74	11549.6
2102.7	11536.6
2103.67	11518.3
2104.63	11496.2
2105.6	11473.8
2106.56	11453.4
2107.53	11438.1
2108.49	11424.9
2109.46	11414.2
2110.42	11406.1
2111.39	11400.7
2112.35	11397.9
2113.32	11397.7
2114.28	11397.8
2115.25	11398.3
2116.21	11388.5
2117.17	11380.6
2118.14	11357
2119.1	11357.2
2120.07	11360
2121.03	11342.3
2121.99	11318.5
2122.96	11291.6
2123.92	11264.2
2124.88	11246.6
2125.84	11229.1
2126.81	11222.3
2127.77	11220.9
2128.73	11220.7
2129.69	11222
2130.65	11216
2131.62	11208
2132.58	11197.9
2133.54	11183.8
2134.5	11168.4
2135.46	11151.1
2136.42	11133.3
2137.38	11115.7
2138.34	11101.2
2139.3	11086.1
2140.26	11072.6
2141.22	11062.1
2142.18	11055.3
2143.14	11055
2144.1	11048.2
2145.06	11041.1
2146.02	11033.6
2146.98	11025.6
2147.94	11016.7
2148.9	11007.4
2149.86	10997.8
2150.82	10988.2
2151.78	10978.6
2152.74	10969.3
2153.69	10959.2
2154.65	10947.5
2155.61	10934.3
2156.57	10920.4
2157.53	10905.8
2158.48	10899.8
2159.44	10878.4
2160.4	10860.3
2161.36	10842.6
2162.31	10824.5
2163.27	10803.6
2164.23	10786.3
2165.18	10772.6
2166.14	10761.9
2167.1	10752.7
2168.05	10738.4
2169.01	10724
2169.96	10709
2170.92	10693.1
2171.88	10676.8
2172.83	10657.8
2173.79	10620
2174.74	10545.6
2175.7	10549
2176.65	10563.2
2177.6	10561.6
2178.56	10556.9
2179.51	10530
2180.47	10509.5
2181.42	10495.3
2182.38	10480.3
2183.33	10463
2184.28	10447.8
2185.24	10434
2186.19	10422.3
2187.14	10413
2188.1	10405.4
2189.05	10400
2190	10396.3
2190.96	10393.3
2191.91	10389.1
2192.86	10383.5
2193.81	10369.2
2194.76	10342.2
2195.72	10322.5
2196.67	10306.9
2197.62	10297.8
2198.57	10301.1
2199.52	10313.8
2200.47	10321.2
2201.43	10325.6
2202.38	10321.9
2203.33	10296.7
2204.28	10280
2205.23	10256.7
2206.18	10228.3
2207.13	10200.3
2208.08	10188.5
2209.03	10176.4
2209.98	10170.5
2210.93	10167
2211.88	10160.5
2212.83	10158.4
2213.78	10164.5
2214.73	10158.7
2215.67	10157.4
2216.62	10135.6
2217.57	10113.1
2218.52	10079.2
2219.47	10050.8
2220.42	10037.6
2221.37	10037
2222.31	10061.5
2223.26	10067.2
2224.21	10074.6
2225.16	10082.1
2226.1	10067.7
2227.05	10060.4
2228	10039.1
2228.94	10031.3
2229.89	10031.5
2230.84	10031.8
2231.78	10024.8
2232.73	10017.4
2233.68	10009.8
2234.62	9995.09
2235.57	9974.64
2236.51	9982.13
2237.46	9976.12
2238.41	9967.66
2239.35	9953.39
2240.3	9943.79
2241.24	9925.43
2242.19	9910.74
2243.13	9903.17
2244.07	9890.07
2245.02	9880.69
2245.96	9876.07
2246.91	9873.12
2247.85	9869.68
2248.8	9869.79
2249.74	9867.8
2250.68	9868.01
2251.63	9878.89
2252.57	9875.59
2253.51	9870.34
2254.46	9839.31
2255.4	9822.42
2256.34	9815.49
2257.28	9813.82
2258.23	9810.57
2259.17	9809.89
2260.11	9811.13
2261.05	9810.39
2262	9813.12
2262.94	9817.86
2263.88	9812.51
2264.82	9802.27
2265.76	9793.77
2266.7	9784.76
2267.64	9766.51
2268.58	9751.38
2269.53	9741.14
2270.47	9737.06
2271.41	9745.32
2272.35	9743.61
2273.29	9739.5
2274.23	9735.3
2275.17	9731.58
2276.11	9731.63
2277.05	9733
2277.99	9732.96
2278.93	9732.8
2279.86	9730.89
2280.8	9728.97
2281.74	9726.24
2282.68	9721.6
2283.62	9713.27
2284.56	9699.05
2285.5	9690.91
2286.44	9684.8
2287.37	9680.04
2288.31	9676.42
2289.25	9674.18
2290.19	9672.72
2291.12	9671.69
2292.06	9669.44
2293	9669.19
2293.94	9669.72
2294.87	9668.99
2295.81	9659.06
2296.75	9646.31
2297.68	9633.62
2298.62	9624.59
2299.55	9619.73
2300.49	9620.36
2301.43	9622.6
2302.36	9623.02
2303.3	9618.71
2304.23	9607.45
2305.17	9587.53
2306.1	9584.04
2307.04	9589.18
2307.98	9587.95
2308.91	9580.16
2309.84	9566.94
2310.78	9546.83
2311.71	9523.18
2312.65	9508.11
2313.58	9501.8
2314.52	9499.41
2315.45	9500.09
2316.38	9502.96
2317.32	9508.73
2317.72	9512.03
2318.66	9526.23
2319.6	9508.59
2320.54	9484
2321.48	9458.92
2322.41	9436.26
2323.35	9415.5
2324.29	9396.88
2325.23	9382.08
2326.16	9369.68
2327.1	9362.52
2328.04	9359.46
2328.97	9360.96
2329.91	9363.83
2330.85	9357.75
2331.78	9334.84
2332.72	9329.47
2333.66	9326.64
2334.59	9317.45
2335.53	9312.02
2336.46	9291.8
2337.4	9276.78
2338.33	9264.71
2339.27	9273.99
2340.2	9293.46
2341.14	9281.58
2342.07	9268.31
2343.01	9256.96
2343.94	9247.14
2344.88	9238.59
2345.81	9230.99
2346.75	9224.64
2347.68	9219.99
2348.61	9216.45
2349.55	9213.88
2350.48	9211.4
2351.41	9205.68
2352.35	9194.81
2353.28	9182.94
2354.21	9164.87
2355.15	9165.46
2356.08	9163.15
2357.01	9157.6
2357.94	9149.09
2358.88	9137.88
2359.81	9123.56
2360.74	9104.83
2361.67	9083.93
2362.6	9090.56
2363.54	9101.12
2364.47	9102.13
2365.4	9089.32
2366.33	9070.12
2367.26	9065.66
2368.19	9074.05
2369.12	9073.36
2370.05	9067.1
2370.98	9061.19
2371.91	9054.07
2372.84	9045.37
2373.77	9035.08
2374.7	9022.92
2375.63	9009.32
2376.56	8997.12
2377.49	8986.85
2378.42	8981.29
2379.35	8974.62
2380.28	8969.33
2381.21	8963.7
2382.14	8959.65
2383.07	8954.56
2384	8950.56
2384.92	8946.17
2385.85	8951.86
2386.78	8970.05
2387.71	8958.52
2388.64	8936.5
2389.56	8919.36
2390.49	8909.23
2391.42	8908.56
2392.35	8906.54
2393.27	8906.35
2394.2	8907.55
2395.13	8912.87
2396.05	8917.63
2396.98	8918.19
2397.91	8921.48
2398.83	8923.25
2399.76	8918.33
2400.69	8903.58
2401.61	8874.62
2402.54	8852.56
2403.46	8833
2404.39	8827.09
2405.31	8825.12
2406.24	8823.77
2407.17	8827.65
2408.09	8821.29
2409.01	8813.56
2409.94	8806.43
2410.86	8800.04
2411.79	8795.43
2412.71	8791.09
2413.64	8788.05
2414.56	8785.84
2415.49	8784.75
2416.41	8782.54
2417.33	8774.35
2418.26	8762.91
2419.18	8750.22
2420.1	8738.14
2421.03	8727.49
2421.95	8717.9
2422.87	8707.47
2423.79	8698.9
2424.72	8690.53
2425.64	8681.35
2426.56	8669.61
2427.48	8655.69
2428.41	8638.98
2429.33	8634.34
2430.25	8624.6
2431.17	8618.96
2432.09	8616.15
2433.01	8606.33
2433.93	8590.04
2434.86	8572.95
2435.78	8555.58
2436.7	8541.83
2437.62	8528.74
2438.54	8517.23
2439.46	8507.84
2440.38	8499.85
2441.3	8492.61
2442.22	8486.05
2443.14	8478.52
2444.06	8471.03
2444.98	8463.42
2445.9	8455.81
2446.82	8447.92
2447.73	8439.6
2448.65	8430.58
2449.57	8432.16
2450.49	8447.41
2451.41	8455.64
2452.33	8442.78
2453.25	8412.09
2454.17	8376.5
2455.08	8362.15
2456	8375.55
2456.92	8386.36
2457.84	8357.83
2458.75	8326.39
2459.67	8302.25
2460.59	8285.3
2461.51	8277.14
2462.42	8278.35
2463.34	8274.6
2464.26	8270.25
2465.17	8265.51
2466.09	8260.56
2467	8257.75
2467.92	8254.69
2468.84	8251.18
2469.75	8246.52
2470.67	8238.23
2471.58	8231.32
2472.5	8224.95
2473.42	8219.26
2474.33	8214.25
2475.25	8209.98
2476.16	8206.06
2477.08	8202.34
2477.99	8198.6
2478.9	8194.82
2479.82	8190.79
2480.73	8186.53
2481.65	8182.26
2482.56	8177.8
2483.47	8173.86
2484.39	8169.33
2485.3	8162.24
2486.22	8152.05
2487.13	8137.53
2488.04	8128.46
2488.96	8121.37
2489.87	8114.57
2490.78	8108.08
2491.69	8101.62
2492.61	8095.01
2493.52	8088.51
2494.43	8077.59
2495.34	8067.77
2496.25	8059.2
2497.17	8056.46
2498.08	8071.03
2498.99	8084.67
2499.9	8088.91
2500.81	8086.61
2501.72	8081.69
2502.63	8070.77
2503.55	8056.52
2504.46	8044.59
2505.37	8032.44
2506.28	8021.91
2507.19	8012.6
2508.1	8004.76
2509.01	7998.64
2509.92	7993.77
2510.83	7990.51
2511.74	7989.1
2512.65	7989.93
2513.56	7993.18
2514.47	7997.22
2515.37	8003.01
2516.28	8009.16
2517.19	8010.07
2518.1	8002.62
2519.01	7986.85
2519.92	7965.49
2520.83	7947.48
2521.73	7935.86
2522.64	7927.38
2523.55	7920.32
2524.46	7914.63
2525.37	7909.35
2526.27	7905.33
2527.18	7902.6
2528.09	7900.84
2529	7900
2529.9	7900.01
2530.81	7900.78
2531.72	7901.53
2532.62	7893.15
2533.53	7881.81
2534.44	7863.17
2535.34	7860.7
2536.25	7862.18
2537.15	7868.33
2538.06	7843.38
2538.96	7840.88
2539.87	7837.76
2540.78	7834.32
2541.68	7828.5
2542.59	7819.29
2543.49	7803.02
2544.4	7789.52
2545.3	7781.13
2546.21	7773.53
2547.11	7769.89
2548.01	7768.06
2548.92	7766.86
2549.82	7762.63
2550.73	7756.63
2551.63	7749.55
2552.53	7741.46
2553.44	7731.79
2554.34	7721.28
2555.24	7709.55
2556.15	7697.04
2557.05	7683.19
2557.95	7668.45
2558.86	7653.2
2559.76	7638.64
2560.66	7628
2561.56	7619.13
2562.46	7613.22
2563.37	7611.61
2564.27	7616.69
2565.17	7623.48
2566.07	7627.12
2566.97	7616.33
2567.88	7600.56
2568.78	7588.9
2569.68	7576.2
2570.58	7565.92
2571.48	7557.22
2572.38	7549.07
2573.28	7540.66
2574.18	7532.36
2575.08	7523.98
2575.98	7514.63
2576.88	7504.93
2577.78	7495.16
2578.68	7485.19
2579.58	7475.64
2580.48	7468.14
2581.38	7466.24
2582.28	7466.77
2583.18	7463.93
2584.08	7459.69
2584.98	7453.14
2585.88	7392.63
2586.77	7387.94
2587.67	7389.25
2588.57	7388.26
2589.47	7386
2590.37	7382.65
2591.27	7379.87
2592.16	7375.06
2593.06	7364.92
2593.96	7352.11
2594.86	7340.4
2595.75	7333.28
2596.65	7331.44
2597.55	7328.71
2598.45	7327.48
2599.34	7326.93
2600.24	7327.42
2601.13	7328.75
2602.03	7331.82
2602.93	7331.66
2603.82	7309.76
2604.72	7288.22
2605.62	7269.36
2606.51	7259.65
2607.41	7252.14
2608.3	7251.33
2609.2	7251.12
2610.09	7251.08
2610.99	7251.07
2611.88	7249.22
2612.78	7245.32
2613.67	7239.91
2614.57	7228.72
2615.46	7217.7
2616.36	7205.19
2617.25	7191.03
2618.14	7175.22
2619.04	7159.83
2619.93	7148.22
2620.83	7139.38
2621.72	7134.57
2622.61	7132.29
2623.5	7134.56
2624.4	7137.68
2625.29	7140.32
2626.18	7140.54
2627.08	7136.05
2627.97	7130.25
2628.86	7121.99
2629.75	7111.49
2630.65	7098.52
2631.54	7083.47
2632.43	7069.32
2633.32	7058.1
2634.21	7051.8
2635.11	7044.6
2636	7036.11
2636.89	7027.12
2637.78	7017.09
2638.67	7004.83
2639.56	6991.92
2640.45	6979.3
2641.34	6966.75
2642.23	6955.47
2643.12	6946.71
2644.01	6941.71
2644.9	6936.35
2645.79	6931.26
2646.68	6926.77
2647.57	6918.04
2648.46	6914.07
2649.35	6910
2650.24	6906.47
2651.13	6903.46
2652.02	6899.15
2652.91	6889.17
2653.8	6866.4
2654.69	6849.86
2655.58	6838.54
2656.46	6836.47
2657.35	6836.79
2658.24	6834.35
2659.13	6830.92
2660.02	6827.21
2660.9	6820.53
2661.79	6813.24
2662.68	6805.39
2663.57	6797.16
2664.45	6788.66
2665.34	6781.58
2666.23	6774.63
2667.11	6764.5
2668	6754.04
2668.89	6742.88
2669.77	6729.88
2670.66	6717.64
2671.55	6715.19
2672.43	6718.51
2673.32	6718.57
2674.21	6717.43
2675.09	6717.48
2675.98	6713.62
2676.86	6708.66
2677.75	6701.68
2678.63	6693.68
2679.52	6683.95
2680.4	6675.85
2681.29	6675.67
2682.17	6670.54
2683.06	6665.16
2683.94	6657.66
2684.82	6647.5
2685.71	6635.71
2686.59	6622.04
2687.48	6606.95
2688.36	6589.75
2689.24	6573.03
2690.13	6566.33
2691.01	6564.12
2691.89	6564.16
2692.78	6565.56
2693.66	6568.29
2694.54	6573.38
2695.43	6571.64
2696.31	6556.17
2697.19	6534.42
2698.07	6514.66
2698.96	6499.2
2699.84	6481.96
2700.72	6467.18
2701.6	6455.33
2702.48	6446.34
2703.36	6440.49
2704.25	6437.54
2705.13	6437.27
2706.01	6439.96
2706.89	6442.06
2707.77	6444.07
2708.65	6441.58
2709.53	6435.77
2710.41	6426.87
2711.29	6413.62
2712.17	6384.28
2713.05	6369.86
2713.93	6353.63
2714.81	6353.67
2715.69	6361.87
2716.57	6374.37
2717.45	6384.89
2718.33	6391.94
2719.21	6385.84
2720.09	6366.02
2720.97	6345.21
2721.85	6332.39
2722.73	6322.76
2723.61	6309.86
2724.48	6306.55
2725.36	6318.94
2726.24	6319.78
2727.12	6318.5
2728	6308.91
2728.88	6290.68
2729.75	6281.63
2730.63	6280.27
2731.51	6288.95
2732.39	6285.59
2733.26	6280.74
2734.14	6270.87
2735.02	6258.92
2735.89	6248.17
2736.77	6237.57
2737.65	6229.29
2738.52	6236.81
2739.4	6246.03
2740.28	6253.16
2741.15	6256.31
2742.03	6247.67
2742.9	6236.27
2743.78	6224.89
2744.65	6210.79
2745.53	6198.21
2746.41	6190.77
2747.28	6186.97
2748.16	6177.71
2749.03	6166.86
2749.91	6153.19
2750.78	6139.64
2751.66	6127.87
2752.53	6126.74
2753.4	6132.39
2754.28	6142.99
2755.15	6153.31
2756.02	6153.96
2756.9	6151.84
2757.77	6147.45
2758.65	6140.84
2759.52	6132.07
2760.39	6121.1
2761.27	6108.77
2762.14	6098.71
2763.01	6089.77
2763.88	6084.51
2764.76	6079.98
2765.63	6073.5
2766.5	6066.67
2767.37	6059.8
2768.25	6052.95
2769.12	6065.72
2769.99	6067.14
2770.86	6063.8
2771.73	6036.31
2772.61	6002.94
2773.48	5986.95
2774.35	5973
2775.22	5964.22
2776.09	5958.59
2776.96	5959.84
2777.83	5964.57
2778.7	5971.94
2779.57	5979.43
2780.44	5967.53
2781.31	5954.48
2782.18	5936.72
2783.05	5931.22
2783.92	5926.11
2784.79	5922.65
2785.66	5920.61
2786.53	5920.46
2787.4	5922.41
2788.27	5925.2
2789.14	5921.07
2790.01	5914.23
2790.88	5905.8
2791.75	5899.78
2792.62	5892.38
2793.48	5884.85
2794.35	5876.56
2795.22	5868.4
2796.09	5860
2796.96	5853.61
2797.82	5852.24
2798.69	5852.8
2799.56	5844.67
2800.43	5831.96
2801.29	5822.45
2802.16	5813.78
2803.03	5807.34
2803.9	5803.97
2804.76	5807.17
2805.63	5807.2
2806.5	5803.52
2807.36	5801.7
2808.23	5789.67
2809.09	5775.11
2809.96	5763.91
2810.83	5754.43
2811.69	5746.03
2812.56	5742.1
2813.42	5735.46
2814.29	5725.78
2815.15	5718.28
2816.02	5713.44
2816.88	5709.94
2817.75	5707.37
2818.61	5706.06
2819.48	5706.24
2820.34	5707.84
2821.21	5711.24
2822.07	5713.91
2822.94	5700.67
2823.8	5677.05
2824.66	5662.15
2825.53	5649.15
2826.39	5639.65
2827.26	5634.89
2828.12	5631.5
2828.98	5632.69
2829.85	5636.31
2830.71	5642.47
2831.57	5647.12
2832.43	5643.26
2833.3	5638.88
2834.16	5631.58
2835.02	5615.72
2835.88	5602.97
2836.75	5593.07
2837.61	5585.89
2838.47	5581.35
2839.33	5576.59
2840.19	5573.24
2841.06	5571.47
2841.92	5570.41
2842.78	5569.8
2843.64	5569.21
2844.5	5568.91
2845.36	5568.38
2846.22	5566.78
2847.08	5564.77
2847.94	5562.45
2848.81	5559.9
2849.67	5553.38
2850.53	5542.22
2851.39	5527.07
2852.25	5516.52
2853.11	5506.88
2853.97	5501.15
2854.82	5496.11
2855.68	5493.59
2856.54	5493.07
2857.4	5494.76
2858.26	5497.78
2859.12	5499.5
2859.98	5499.2
2860.84	5493.28
2861.7	5486.89
2862.56	5479.71
2863.41	5470.37
2864.27	5459.23
2865.13	5447.88
2865.99	5437.22
2866.85	5425.58
2867.7	5414.57
2868.56	5405.47
2869.42	5402.55
2870.28	5412.01
2871.13	5422.64
2871.99	5429.92
2872.85	5433.42
2873.7	5432.92
2874.56	5429.92
2875.42	5425.03
2876.27	5418.51
2877.13	5414.6
2877.99	5410.35
2878.84	5403.09
2879.7	5394.75
2880.56	5385.42
2881.41	5375.15
2882.27	5364.03
2883.12	5352.03
2883.98	5339.51
2884.83	5327.31
2885.69	5315.06
2886.54	5300.53
2887.4	5285
2888.25	5269.94
2889.11	5258.74
2889.96	5292.41
2890.82	5310.14
2891.67	5305.12
2892.52	5296.69
2893.38	5287.61
2894.23	5276.04
2895.09	5261.54
2895.94	5249.41
2896.79	5253.3
2897.65	5247.52
2898.5	5240.66
2899.35	5234.13
2900.21	5227.76
2901.06	5222.23
2901.91	5217.4
2902.76	5213.13
2903.62	5208.79
2904.47	5204.79
2905.32	5201.07
2906.17	5197.88
2907.03	5194.82
2907.88	5193.89
2908.73	5193.65
2909.58	5198.59
2910.43	5201.77
2911.28	5200.36
2912.14	5192.88
2912.99	5175.24
2913.84	5162.99
2914.69	5154.17
2915.54	5143.94
2916.39	5133.66
2917.24	5123.93
2918.09	5114.81
2918.94	5106.45
2919.79	5097.45
2920.64	5093.68
2921.49	5098.12
2922.34	5099.88
2923.19	5098.44
2924.04	5092.52
2924.89	5084.84
2925.74	5075.52
2926.59	5064.23
2927.44	5050.32
2928.29	5034.45
2929.14	5031.88
2929.98	5033.5
2930.83	5033.17
2931.68	5030.73
2932.53	5026.15
2933.38	5020.62
2934.23	5012.89
2935.07	5003.88
2935.92	4993.12
2936.77	4980.76
2937.62	4968.7
2938.47	4957.41
2939.31	4957.86
2940.16	4959.22
2941.01	4965.81
2941.85	4971.16
2942.7	4981.93
2943.55	4990.59
2944.39	4984.63
2945.24	4966.3
2946.09	4946.91
2946.93	4921.31
2947.78	4898.83
2948.63	4884.1
2949.47	4880.06
2950.32	4884.32
2951.16	4900.16
2952.01	4910.48
2952.85	4923.6
2953.7	4919.09
2954.55	4911.09
2955.39	4897.26
2956.24	4884.48
2957.08	4873.48
2957.92	4865.98
2958.77	4858.82
2959.61	4852.33
2960.46	4846.52
2961.3	4841.4
2962.15	4835.77
2962.99	4831.79
2963.83	4828.45
2964.68	4825.82
2965.52	4823.39
2966.37	4821.29
2967.21	4819.08
2968.05	4816.06
2968.9	4813.16
2969.74	4809.73
2970.58	4804.98
2971.42	4799.68
2972.27	4793.76
2973.11	4787.44
2973.95	4780.44
2974.79	4775.66
2975.64	4775.94
2976.48	4779.43
2977.32	4784.77
2978.16	4785.1
2979	4777.86
2979.85	4768.91
2980.69	4758.96
2981.53	4749.92
2982.37	4742.24
2983.21	4735.83
2984.05	4731.87
2984.89	4729.01
2985.73	4731.7
2986.57	4734.93
2987.41	4738.55
2988.25	4740.76
2989.1	4735.85
2989.94	4729.64
2990.77	4718.69
2991.62	4710.17
2992.45	4702.14
2993.29	4701.72
2994.13	4702.39
2994.97	4706.1
2995.81	4697.78
2996.65	4693.26
2997.49	4686.35
2998.33	4691.08
2999.17	4657.79
