200.833	20465.9
202.102	20506.6
203.371	20539.7
204.639	20569.2
205.907	20593.4
207.175	20614.4
208.442	20634.2
209.71	20649.8
210.977	20663.5
212.244	20674.3
213.511	20683.5
214.777	20692.6
216.042	20704.5
217.309	20726
218.575	20751.1
219.84	20781.8
221.106	20817.9
222.371	20859.5
223.635	20901.9
224.9	20944.5
226.165	20985.9
227.429	21025
228.694	21063.5
229.956	21102.3
231.22	21140.8
232.484	21183.5
233.747	21231.9
235.011	21282.7
236.272	21330.8
237.535	21378.4
238.798	21421.6
240.06	21458.7
241.321	21490.6
242.583	21516.4
243.845	21536.9
245.105	21545.4
246.367	21544.2
247.628	21538.6
248.888	21538.3
250.149	21601.5
251.409	21680.8
252.67	21700
253.928	21648.4
255.189	21591.4
256.447	21644.4
257.707	21669.6
258.966	21690.7
260.224	21709.5
261.483	21726.2
262.742	21741.6
263.999	21753.5
265.257	21764.7
266.514	21780.5
267.772	21798.5
269.028	21822.8
270.286	21858.9
271.543	21897.3
272.799	21930.1
274.056	21950
275.311	21942.3
276.568	21930.6
277.823	21922.8
279.079	21925
280.333	22003.5
281.589	22176
282.843	22218.6
284.099	22158.5
285.352	22121.3
286.607	22130.9
287.86	22218.5
289.114	22300.1
290.368	22344.5
291.621	22321.9
292.875	22324.8
294.127	22328.2
295.38	22339.2
296.632	22355.1
297.884	22374.5
299.137	22390.1
300.388	22405.3
301.641	22416.6
302.891	22424.9
304.142	22431.1
305.394	22438
306.644	22448.3
307.894	22473.3
309.146	22497.8
310.395	22525.9
311.645	22558
312.895	22593.2
314.144	22620.8
315.393	22637.3
316.642	22644.9
317.892	22652.6
319.14	22660.8
320.388	22669.4
321.637	22677.5
322.885	22686.2
324.132	22694.7
325.38	22703.5
326.628	22712.2
327.875	22722
329.122	22733.3
330.368	22747.1
331.614	22764.7
332.862	22785.3
334.108	22808.4
335.353	22832.8
336.599	22857
337.844	22881.7
339.089	22905.4
340.335	22929.1
341.58	22953.6
342.824	22979.2
344.068	23014.9
345.312	23055.7
346.556	23067.1
347.8	23072.6
349.043	23095
350.286	23110.9
351.53	23124.9
352.774	23151.6
354.016	23170
355.259	23181.3
356.501	23187.6
357.743	23190.1
358.985	23189.3
360.227	23185.9
361.468	23181.9
362.709	23177.4
363.95	23174.7
365.191	23175.1
366.432	23178.8
367.672	23184.5
368.912	23192.2
370.152	23201.4
371.392	23212
372.632	23223.2
373.871	23232.6
375.11	23239.2
376.348	23242.5
377.587	23242.2
378.825	23239.5
380.064	23237
381.302	23233.6
382.54	23228.3
383.778	23227.9
385.016	23238.4
386.253	23286.1
387.489	23369.2
388.726	23423
389.963	23400.9
391.199	23425.6
392.436	23451.3
393.672	23475.8
394.907	23499.2
396.142	23526.4
397.378	23550.4
398.614	23569.6
399.849	23569.1
401.082	23568
402.317	23566
403.552	23571.2
404.786	23581.9
406.019	23593.4
407.253	23607.5
408.487	23617.6
409.721	23625
410.953	23628.6
412.186	23634.6
413.419	23641.1
414.651	23651.2
415.883	23660.8
417.116	23667.8
418.347	23672.7
419.579	23675.5
420.811	23675.5
422.041	23879.3
423.272	23716.9
424.504	23634.3
425.733	23618.6
426.964	23656.2
428.194	23689
429.424	23740
430.654	23772.3
431.883	23783.8
433.113	23795.5
434.341	23803.1
435.571	23801.9
436.799	23796.3
438.028	23781.9
439.257	23772.3
440.484	23762.4
441.713	23768.6
442.94	23808.5
444.168	23848.6
445.394	23877.6
446.622	23905.3
447.848	23931.2
449.076	23950.9
450.301	23965.2
451.528	23973.3
452.754	23977.1
453.979	23964.9
455.205	23943
456.43	23921.8
457.656	23900.5
458.88	23900.2
460.106	23903.5
461.33	23911.4
462.554	23923.4
463.779	23940.9
465.002	23962
466.225	23984.3
467.45	24010.3
468.672	24032.8
469.895	24048.2
471.119	24044.2
472.341	24032.8
473.563	24012.4
474.786	23996.2
476.008	23981.5
477.229	23964.1
478.452	23952.5
479.673	23942.1
480.894	23932.9
482.115	23925
483.337	23918
484.557	23911.5
485.777	23895.9
486.997	23879.4
488.218	23865.9
489.438	23857.8
490.657	23855.9
491.876	23867.8
493.096	23884
494.315	23899
495.533	23910.1
496.752	23914.7
497.97	23911.8
499.188	23900.1
500.407	23880.3
501.625	23851.4
502.842	23848.3
504.059	23870.7
505.276	23932.9
506.493	24023.9
507.71	23999.8
508.926	23974.2
510.142	23913.2
511.358	23880.8
512.575	23938.4
513.791	23956
515.006	23974
516.222	23991.9
517.437	24009.5
518.651	24026.9
519.866	24043.4
521.081	24059.5
522.295	24075.1
523.509	24089.8
524.723	24105.1
525.937	24122.1
527.15	24152.4
528.363	24180.9
529.576	24199.9
530.789	24213.4
532.002	24219.9
533.215	24220
534.426	24214.7
535.638	24205.6
536.85	24198
538.061	24191.9
539.273	24195.1
540.484	24198.9
541.695	24204.3
542.906	24210.4
544.117	24219.5
545.327	24226.6
546.537	24225.7
547.747	24219.3
548.957	24209.8
550.167	24202.1
551.377	24196.8
552.585	24195.6
553.794	24198.1
555.003	24205
556.212	24215.1
557.421	24227.4
558.628	24241.6
559.836	24255.8
561.044	24269.7
562.252	24281.1
563.458	24280.7
564.666	24273.4
565.873	24269.9
567.08	24267.1
568.286	24261.9
569.493	24257
570.699	24258.6
571.904	24264
573.111	24274.8
574.317	24286.1
575.521	24295.4
576.727	24301.9
577.932	24304.8
579.136	24305.7
580.341	24304.2
581.544	24301.9
582.749	24300
583.954	24299.6
585.156	24302.7
586.361	24309.7
587.563	24329.4
588.767	24353.4
589.97	24356.1
591.172	24346.1
592.375	24319.4
593.577	24292.1
594.78	24267.7
595.981	24254.1
597.183	24300.5
598.384	24311
599.586	24316
600.786	24312
601.988	24301.4
603.188	24285.9
604.389	24264
605.589	24257.1
606.79	24251.5
607.989	24246.7
609.188	24243
610.389	24241
611.587	24238.9
612.787	24210.5
613.986	24182
615.184	24157.6
616.383	24139
617.581	24130.5
618.78	24128.9
619.977	24163.7
621.174	24117
622.373	24088
623.57	24058.1
624.766	24035.6
625.964	24019.7
627.16	24008.7
628.356	24000.7
629.554	23997.2
630.749	23996.8
631.945	23999.5
633.14	23973
634.337	23951.8
635.532	23920.9
636.726	23908
637.921	23910.2
639.117	23911.7
640.311	23911.7
641.505	23911.5
642.699	23912.1
643.892	23913.2
645.087	23900.2
646.28	23889.7
647.473	23890.3
648.666	23906.8
649.859	23922.4
651.051	23946.2
652.245	23961.1
653.437	23963.4
654.629	23953.3
655.821	23941.5
657.012	23928.6
658.204	23926.6
659.395	23935.2
660.586	23948.2
661.777	23966.1
662.967	23990.2
664.158	24014.7
665.349	24034.2
666.539	24026.7
667.729	24022
668.919	24013.9
670.109	24004.1
671.298	23991.3
672.487	23986.7
673.676	23990
674.865	24002.6
676.053	24023
677.242	24052.3
678.43	24082.5
679.616	24106.7
680.804	24125.6
681.992	24139.1
683.179	24121.8
684.366	24059.3
685.554	24033.3
686.74	24010.4
687.927	24013.5
689.114	24029
690.3	24045.1
691.486	24051.1
692.671	24047
693.856	24034.6
695.042	24013.4
696.227	23984.7
697.413	23951.8
698.598	23912.1
699.781	23896.6
700.966	23896.2
702.15	23891.1
703.334	23889.4
704.518	23898.6
705.701	23902
706.885	23904.9
708.068	23899.2
709.252	23884.2
710.433	23860.7
711.616	23850.6
712.799	23834.9
713.98	23833.5
715.163	23845.6
716.345	23862.8
717.527	23872.4
718.707	23886.8
719.889	23832.2
721.071	23804.8
722.25	23839.3
723.432	23844.5
724.611	23837.4
725.792	23830.7
726.972	23825.1
728.151	23819.3
729.332	23808.8
730.512	23800.6
731.69	23808
732.87	23836.8
734.048	23863.7
735.227	23876.3
736.405	23876.9
737.584	23873.8
738.761	23874.3
739.94	23874.6
741.117	23872.3
742.295	23873.7
743.471	23887.2
744.649	23895
745.825	23876.8
747.003	23868.5
748.179	23870.3
749.356	23882.6
750.531	23900.3
751.708	23920.1
752.883	23937.4
754.059	23953.6
755.234	23954.8
756.409	23951.8
757.585	23945.3
758.759	23936.8
759.934	23928.2
761.108	23917.4
762.282	23906
763.456	23892.4
764.63	23877.3
765.803	23859.4
766.977	23825.4
768.15	23812.2
769.323	23816.6
770.496	23841.3
771.668	23851.2
772.841	23863
774.014	23837.2
775.185	23797.5
776.357	23790.9
777.528	23782.2
778.701	23768.1
779.872	23749.7
781.042	23729.2
782.213	23698.8
783.383	23664.4
784.555	23628.1
785.725	23590
786.895	23563.9
788.064	23555.2
789.234	23546.9
790.404	23544.5
791.573	23547.6
792.742	23557.3
793.911	23547.9
795.08	23534.6
796.248	23523
797.416	23512.5
798.584	23509.4
799.753	23509.7
800.921	23514.8
802.088	23523.5
803.256	23539.6
804.423	23558.5
805.59	23577.5
806.756	23589
807.923	23595.4
809.089	23595.5
810.256	23590.1
811.422	23580.8
812.587	23568.1
813.753	23557.7
814.918	23552
816.084	23554.4
817.249	23559.1
818.414	23568
819.578	23580.9
820.743	23596.7
821.907	23584.8
823.072	23574.7
824.236	23568.1
825.399	23567.1
826.562	23571.4
827.725	23580.4
828.889	23593.4
830.052	23610.3
831.215	23624
832.377	23627.2
833.54	23628.3
834.701	23627.7
835.863	23625.4
837.025	23623
838.187	23620.9
839.349	23620.1
840.51	23624.8
841.67	23629.6
842.831	23620.6
843.992	23608.7
845.153	23605
846.312	23600.2
847.473	23593.7
848.633	23582
849.793	23567.3
850.951	23549.2
852.111	23528.4
853.27	23504.5
854.428	23478.3
855.588	23450.4
856.747	23424.4
857.904	23426.3
859.063	23428.8
860.221	23422.2
861.378	23418.4
862.536	23400.7
863.694	23369.7
864.85	23329.9
866.008	23295.8
867.164	23264.1
868.321	23244.2
869.478	23246.9
870.633	23231.4
871.79	23212.2
872.945	23197.9
874.101	23184.3
875.256	23171.7
876.412	23162.8
877.566	23156.5
878.722	23152.5
879.876	23146.6
881.031	23138.5
882.185	23122.5
883.34	23105.1
884.493	23089.8
885.647	23073.1
886.8	23055.3
887.954	23035.9
889.107	23015.6
890.261	22994.8
891.413	22974
892.565	22966.8
893.718	22979.7
894.87	22997.1
896.023	23013.1
897.174	23031.6
898.326	23019.4
899.478	23014
900.629	23001.7
901.779	22997.9
902.931	22986.2
904.081	23001.1
905.231	23034.1
906.383	23064.2
907.532	23086.3
908.682	23097.7
909.831	23098.1
910.982	23093.6
912.131	23081.4
913.28	23054.2
914.429	23029
915.578	23044.7
916.727	23083.7
917.875	23111.6
919.023	23139.8
920.171	23136
921.32	23110.4
922.467	23101.6
923.614	23092.8
924.761	23096.7
925.908	23113.3
927.055	23126.2
928.203	23132.1
929.349	23129.4
930.496	23126.9
931.642	23120.4
932.787	23108.2
933.933	23094.1
935.079	23079
936.224	23063
937.369	23046.3
938.514	23029.9
939.659	23015.1
940.804	23002.3
941.948	22990.3
943.092	22984.2
944.236	22982.2
945.38	22985.4
946.524	22985.9
947.667	22984.4
948.811	22973.9
949.954	22954.8
951.097	22938.8
952.24	22921.9
953.383	22905.2
954.525	22897.2
955.667	22889.5
956.81	22881.2
957.952	22872.5
959.093	22859.8
960.235	22844.3
961.376	22824.8
962.516	22804.4
963.658	22784.6
964.798	22766.6
965.939	22753.1
967.08	22743.5
968.22	22737
969.359	22734
970.499	22733.9
971.639	22737.8
972.779	22743.2
973.918	22747.3
975.056	22751.6
976.195	22755.5
977.334	22758.5
978.473	22761.4
979.61	22763.7
980.749	22765.9
981.887	22766.9
983.024	22763.6
984.162	22750.8
985.3	22732.3
986.437	22720.7
987.573	22715.9
988.711	22721.5
989.848	22730.5
990.983	22748
992.12	22767.2
993.255	22794.6
994.392	22804.3
995.528	22802
996.662	22785.3
997.798	22758.8
998.933	22731.3
1000.07	22704
1001.2	22695.9
1002.34	22706.1
1003.47	22717.2
1004.61	22731.5
1005.74	22736
1006.87	22731.7
1008.01	22724
1009.14	22711.5
1010.27	22694.2
1011.41	22673.1
1012.54	22652.3
1013.67	22638.6
1014.81	22645.5
1015.94	22667.7
1017.07	22684.8
1018.2	22697.9
1019.33	22715.5
1020.47	22711.2
1021.6	22690
1022.73	22659
1023.86	22632
1024.99	22612
1026.12	22593.4
1027.25	22576.5
1028.38	22562.8
1029.51	22551.5
1030.64	22544
1031.77	22539
1032.9	22539.9
1034.03	22538.7
1035.16	22504.8
1036.29	22469.1
1037.42	22437.9
1038.55	22417.3
1039.67	22403
1040.8	22393.2
1041.93	22392
1043.06	22396.2
1044.19	22406.6
1045.31	22419.4
1046.44	22415.1
1047.57	22391.6
1048.69	22327.2
1049.82	22292.6
1050.95	22265
1052.08	22249.8
1053.2	22240.1
1054.33	22240
1055.45	22237.9
1056.58	22234.4
1057.7	22216.1
1058.83	22198.2
1059.95	22177.8
1061.08	22168.8
1062.2	22174.3
1063.33	22196.9
1064.45	22205.3
1065.58	22210.4
1066.7	22203.5
1067.83	22197.4
1068.95	22188.7
1070.07	22184.6
1071.2	22177.4
1072.32	22169
1073.44	22158.8
1074.56	22149.1
1075.69	22132.5
1076.81	22113.9
1077.93	22099.8
1079.05	22093
1080.17	22111.5
1081.3	22136.3
1082.42	22163.5
1083.54	22199.6
1084.66	22225.3
1085.78	22237.4
1086.9	22241.6
1088.02	22238.2
1089.14	22224.3
1090.26	22203.2
1091.38	22193.6
1092.5	22183.9
1093.62	22164.2
1094.74	22156
1095.86	22160.6
1096.98	22178.3
1098.1	22162.9
1099.22	22142
1100.34	22142
1101.45	22151.4
1102.57	22157.9
1103.69	22155.5
1104.81	22147.4
1105.93	22139.9
1107.04	22128.6
1108.16	22112.8
1109.28	22092.3
1110.4	22069.7
1111.51	22049.4
1112.63	22030.2
1113.75	22015.7
1114.86	22002.5
1115.98	21991.8
1117.09	21983.8
1118.21	21978.3
1119.32	21975.4
1120.44	21974.3
1121.55	21972.1
1122.67	21962.3
1123.78	21940
1124.9	21901.2
1126.01	21858
1127.13	21833.2
1128.24	21792.4
1129.35	21791.4
1130.47	21795.8
1131.58	21789.2
1132.7	21774.2
1133.81	21748.2
1134.92	21711.9
1136.03	21661.6
1137.15	21616.1
1138.26	21594.7
1139.37	21566.1
1140.48	21550.8
1141.59	21557.1
1142.71	21568.1
1143.82	21561.9
1144.93	21552.9
1146.04	21531.4
1147.15	21491.5
1148.26	21463.6
1149.37	21445.7
1150.48	21424
1151.59	21430.2
1152.7	21438.5
1153.81	21456.5
1154.92	21456
1156.03	21452.7
1157.14	21432.3
1158.25	21409.3
1159.36	21378.3
1160.47	21356.2
1161.58	21340.5
1162.68	21341.9
1163.79	21336.3
1164.9	21326.4
1166.01	21312.8
1167.12	21305.4
1168.22	21294.2
1169.33	21299.4
1170.44	21316.5
1171.55	21345.4
1172.65	21361.7
1173.76	21375.7
1174.87	21378.2
1175.97	21372.6
1177.08	21364
1178.18	21356
1179.29	21348.9
1180.4	21342.6
1181.5	21323.4
1182.61	21344.5
1183.71	21368.8
1184.82	21414
1185.92	21394.8
1187.02	21348.1
1188.13	21345.9
1189.23	21354.7
1190.34	21367.3
1191.44	21376.6
1192.54	21389.6
1193.65	21389.7
1194.75	21371.1
1195.85	21354.2
1196.96	21342.8
1198.06	21339.4
1199.16	21337.7
1200.26	21345.3
1201.37	21356
1202.47	21369.4
1203.57	21386.2
1204.67	21393.3
1205.77	21380.7
1206.87	21373.6
1207.97	21366.6
1209.08	21360.3
1210.18	21349.4
1211.28	21336.8
1212.38	21323.4
1213.48	21310.3
1214.58	21298.5
1215.68	21289.2
1216.78	21287.7
1217.88	21289
1218.98	21292.5
1220.07	21297.9
1221.17	21303.6
1222.27	21288.8
1223.37	21262.6
1224.47	21223.3
1225.57	21189.7
1226.66	21197.8
1227.76	21209.1
1228.86	21231.1
1229.96	21197.7
1231.06	21159.8
1232.15	21121.4
1233.25	21084.3
1234.35	21052.2
1235.44	21030.6
1236.54	21023.2
1237.63	21028.6
1238.73	21034.5
1239.83	21047.4
1240.92	21045.4
1242.02	21034.5
1243.11	21016
1244.21	20996.3
1245.3	20977.6
1246.4	20960.6
1247.49	20947.2
1248.59	20944.2
1249.68	20939.8
1250.78	20927.7
1251.87	20913.3
1252.96	20901.9
1254.06	20899.1
1255.15	20906.4
1256.24	20905.6
1257.34	20893.9
1258.43	20878.1
1259.52	20872.2
1260.62	20871.5
1261.71	20872.6
1262.8	20872.9
1263.89	20873.7
1264.98	20868.5
1266.08	20863.4
1267.17	20857.4
1268.26	20851
1269.35	20844.4
1270.44	20838.9
1271.53	20835.7
1272.62	20834.5
1273.71	20834.6
1274.8	20836.8
1275.89	20841.2
1276.98	20848.8
1278.07	20863.2
1279.16	20881.7
1280.25	20905.1
1281.34	20931.8
1282.43	20963.7
1283.52	20993.9
1284.61	20828.7
1285.69	20889.5
1286.78	20917.6
1287.87	20927.8
1288.96	20941.2
1290.05	20940.6
1291.13	20911.8
1292.22	20900
1293.31	20888.1
1294.4	20876.4
1295.48	20866.1
1296.57	20858.4
1297.66	20851.8
1298.74	20847.1
1299.83	20845.6
1300.92	20846.8
1302	20852.4
1303.09	20863.2
1304.17	20868.5
1305.26	20873.7
1306.34	20877.9
1307.43	20880.7
1308.51	20882.3
1309.6	20882.3
1310.68	20881.5
1311.76	20879.3
1312.85	20876.2
1313.93	20870.3
1315.02	20857.7
1316.1	20846.6
1317.18	20834.4
1318.27	20825.1
1319.35	20810
1320.43	20800.6
1321.52	20791.5
1322.6	20784
1323.68	20775.7
1324.76	20750.5
1325.85	20729.5
1326.93	20711.3
1328.01	20694.3
1329.09	20723
1330.17	20688
1331.25	20664.7
1332.33	20643.2
1333.41	20630.9
1334.49	20625
1335.58	20618.8
1336.65	20617.5
1337.74	20619.3
1338.82	20622.8
1339.89	20626.3
1340.97	20614
1342.05	20592.4
1343.13	20573.8
1344.21	20555.4
1345.29	20540
1346.37	20533.5
1347.45	20530.4
1348.53	20536.7
1349.6	20541.4
1350.68	20545.5
1351.76	20548.3
1352.84	20553.6
1353.92	20558
1354.99	20560
1356.07	20558.4
1357.15	20553.9
1358.22	20550
1359.3	20544.1
1360.38	20534.5
1361.45	20515.7
1362.53	20495.1
1363.61	20478
1364.68	20466.9
1365.76	20462.4
1366.83	20464.1
1367.91	20469.8
1368.98	20479
1370.06	20488
1371.13	20496.6
1372.21	20505.6
1373.28	20505.4
1374.35	20499.5
1375.43	20492.5
1376.5	20485.7
1377.58	20478.1
1378.65	20474.1
1379.72	20472.7
1380.8	20471.8
1381.87	20469.3
1382.94	20462.4
1384.01	20452.1
1385.09	20437
1386.16	20418.4
1387.23	20393.5
1388.3	20372.9
1389.38	20384.8
1390.45	20402.6
1391.52	20418.7
1392.59	20405
1393.66	20379.5
1393.92	20372.2
1395	20352.8
1396.07	20376.1
1397.15	20375.2
1398.22	20370.2
1399.3	20360.5
1400.38	20342.9
1401.45	20314.1
1402.53	20304.8
1403.6	20297.9
1404.68	20291.3
1405.75	20290.3
1406.82	20300.8
1407.9	20302.9
1408.97	20300.4
1410.05	20288.8
1411.12	20270.5
1412.19	20258.4
1413.27	20251.5
1414.34	20246.7
1415.41	20243.8
1416.49	20242.8
1417.56	20243.3
1418.63	20243
1419.7	20243.3
1420.78	20241.7
1421.85	20239.3
1422.92	20234.2
1423.99	20226.4
1425.06	20213.6
1426.14	20199
1427.21	20182.7
1428.28	20166.6
1429.35	20152.2
1430.42	20140
1431.49	20129.6
1432.56	20123.9
1433.63	20118.4
1434.7	20119.9
1435.77	20122.9
1436.84	20126.3
1437.91	20125.4
1438.98	20115.3
1440.05	20107.7
1441.12	20099.2
1442.18	20089.2
1443.25	20084.5
1444.32	20084.5
1445.39	20080.4
1446.46	20067.8
1447.53	20057
1448.59	20043.9
1449.66	20033.7
1450.73	20025.9
1451.8	20017.3
1452.86	20009.8
1453.93	20004.9
1455	20006.2
1456.06	20011.8
1457.13	20019.3
1458.2	20024.3
1459.26	20016.3
1460.33	20006.8
1461.39	19988.2
1462.46	19959.2
1463.52	19946.5
1464.59	19942.5
1465.65	19955.1
1466.72	19948.4
1467.78	19939.9
1468.85	19928.5
1469.91	19923
1470.98	19925.6
1472.04	19926.1
1473.1	19926.9
1474.17	19927.8
1475.23	19929.9
1476.3	19929.8
1477.36	19926
1478.42	19919.9
1479.48	19913.2
1480.55	19908.9
1481.61	19905.6
1482.67	19902.1
1483.73	19899
1484.8	19897
1485.86	19895.5
1486.92	19894.5
1487.98	19893
1489.04	19880.7
1490.1	19854.9
1491.17	19836
1492.23	19823.6
1493.29	19811.8
1494.35	19802.9
1495.41	19797.2
1496.47	19794.9
1497.53	19793.2
1498.59	19791.8
1499.65	19789.5
1500.71	19783.4
1501.77	19777.6
1502.83	19771.4
1503.88	19764.2
1504.94	19756.9
1506	19735.9
1507.06	19688.3
1508.12	19651.2
1509.18	19623.7
1510.23	19606
1511.29	19594.2
1512.35	19590.3
1513.41	19594.3
1514.47	19606.2
1515.52	19626.4
1516.58	19650.5
1517.64	19642.5
1518.69	19632.5
1519.75	19604.3
1520.81	19581.7
1521.86	19562.7
1522.92	19548.7
1523.97	19537.3
1525.03	19531.2
1526.08	19524.6
1527.14	19519.5
1528.2	19515.6
1529.25	19515.2
1530.31	19513.3
1531.36	19501.1
1532.42	19483.4
1533.47	19460
1534.52	19434.8
1535.58	19424.7
1536.63	19416
1537.69	19411.4
1538.74	19410.6
1539.79	19410
1540.84	19413.7
1541.9	19418
1542.95	19409
1544	19387.8
1545.06	19368
1546.11	19366.9
1547.16	19369.9
1548.21	19373.9
1549.27	19372.5
1550.32	19374
1551.37	19374.7
1552.42	19374.6
1553.47	19373.7
1554.52	19371.6
1555.57	19368.4
1556.62	19363.2
1557.67	19357.2
1558.72	19350.8
1559.77	19342
1560.82	19329.5
1561.87	19314.8
1562.92	19298.5
1563.97	19283.4
1565.02	19286.4
1566.07	19319.9
1567.12	19334.5
1568.17	19344.4
1569.22	19362.7
1570.27	19355.3
1571.32	19343.6
1572.36	19329.7
1573.41	19315.6
1574.46	19304
1575.51	19295.3
1576.56	19313.3
1577.6	19324
1578.65	19322.7
1579.7	19310
1580.74	19285
1581.79	19259.8
1582.84	19255.7
1583.88	19271.2
1584.93	19267.4
1585.98	19259.7
1587.02	19251.3
1588.07	19241.7
1589.11	19231.4
1590.16	19222.3
1591.2	19212.2
1592.25	19201.1
1593.29	19188.8
1594.34	19175.4
1595.38	19160.3
1596.43	19140.3
1597.47	19115.5
1598.52	19088.9
1599.56	19069.7
1600.6	19063.7
1601.65	19054.3
1602.69	19042
1603.73	19032.1
1604.78	19022.2
1605.82	19011.5
1606.86	19000.6
1607.91	18987.7
1608.95	18980.2
1609.99	19001.8
1611.03	19019.4
1612.08	19013.5
1613.12	18992.5
1614.16	18958.4
1615.2	18887
1616.24	18935.6
1617.28	18898.4
1618.32	18881.4
1619.36	18868.3
1620.41	18859.1
1621.45	18850.1
1622.49	18840.2
1623.53	18828.3
1624.57	18808.6
1625.61	18788.6
1626.65	18768
1627.69	18745.8
1628.73	18736.7
1629.76	18727.1
1630.8	18719.7
1631.84	18712.2
1632.88	18703.5
1633.92	18693.9
1634.96	18674.4
1636	18655.8
1637.03	18634.8
1638.07	18611
1639.11	18607.8
1640.15	18616.6
1641.19	18620.4
1642.22	18624.9
1643.26	18622.4
1644.3	18607.4
1645.33	18583.2
1646.37	18557.5
1647.41	18529.3
1648.44	18506.5
1649.48	18490.3
1650.52	18477.5
1651.55	18469
1652.59	18466.5
1653.62	18468.5
1654.66	18474.7
1655.69	18484.1
1656.73	18489
1657.76	18478.7
1658.8	18471.3
1659.83	18461.5
1660.87	18448.5
1661.9	18432.6
1662.93	18417.2
1663.97	18402.6
1665	18401.7
1666.04	18412.6
1667.07	18423
1668.1	18416.6
1669.14	18413
1670.17	18399.2
1671.2	18378.4
1672.23	18355.6
1673.27	18331.2
1674.3	18316.4
1675.33	18314.8
1676.36	18315.1
1677.39	18316.8
1678.43	18317
1679.46	18321
1680.49	18324.7
1681.52	18327.4
1682.55	18329
1683.58	18324.8
1684.61	18320.5
1685.64	18294.5
1686.67	18255.8
1687.7	18223.9
1688.73	18206.5
1689.76	18196.7
1690.79	18191.6
1691.82	18185.1
1692.85	18184
1693.88	18182.2
1694.91	18189.8
1695.94	18197.4
1696.97	18201.5
1698	18184.7
1699.02	18157.2
1700.05	18132
1701.08	18111.3
1702.11	18096.4
1703.14	18087.6
1704.16	18088.8
1705.19	18092.9
1706.22	18094.7
1707.25	18087.2
1708.27	18049.9
1709.3	18020.2
1710.33	18003.4
1711.35	17993.8
1712.38	17992.5
1713.41	17995.6
1714.43	17980.5
1715.46	17968.7
1716.48	17956.4
1717.51	17944.1
1718.53	17931.9
1719.56	17919.5
1720.58	17910.3
1721.61	17901.8
1722.63	17894.6
1723.66	17888
1724.68	17881.8
1725.71	17870.9
1726.73	17850.8
1727.75	17832.4
1728.78	17811.9
1729.8	17794
1730.83	17784.4
1731.85	17777.5
1732.87	17772
1733.89	17771.4
1734.92	17767.4
1735.94	17747.4
1736.96	17711.7
1737.98	17689.4
1739.01	17680.6
1740.03	17669.2
1741.05	17660.4
1742.07	17653.5
1743.09	17642
1744.12	17630.7
1745.14	17617.1
1746.16	17603.4
1747.18	17590.1
1748.2	17577.4
1749.22	17565.1
1750.24	17554
1751.26	17548.1
1752.28	17544.6
1753.3	17541.7
1754.32	17538
1755.34	17534.9
1756.36	17528.5
1757.38	17514.5
1758.4	17502.1
1759.42	17487.6
1760.44	17476
1761.45	17465.5
1762.47	17459.2
1763.49	17453
1764.51	17457.1
1765.53	17462
1766.55	17478.9
1767.56	17487.8
1768.58	17488.5
1769.6	17471.4
1770.61	17432.1
1771.63	17411.6
1772.65	17395.7
1773.67	17377.3
1774.68	17375.2
1775.7	17382.9
1776.72	17380.3
1777.73	17371.3
1778.75	17357.2
1779.76	17340.5
1780.78	17324.6
1781.79	17310.6
1782.81	17296.3
1783.83	17282
1784.84	17267.8
1785.85	17253.9
1786.87	17240.4
1787.88	17227.4
1788.9	17215.1
1789.91	17203.5
1790.93	17192.8
1791.94	17183.3
1792.95	17174.1
1793.97	17163.3
1794.98	17152
1796	17141.1
1797.01	17130.4
1798.02	17119.8
1799.03	17109.2
1800.05	17098.7
1801.06	17088.2
1802.07	17078.4
1803.08	17068
1804.1	17052.6
1805.11	17033.1
1806.12	17005.8
1807.13	16992.9
1808.14	16990
1809.15	16991
1810.17	16989.1
1811.18	16981.6
1812.19	16974.1
1813.2	16964.5
1814.21	16953.8
1815.22	16940.7
1816.23	16925.1
1817.24	16905
1818.25	16853
1819.26	16830.4
1820.27	16808.5
1821.28	16787.9
1822.29	16769.1
1823.3	16753.9
1824.3	16744.4
1825.31	16739.3
1826.32	16739.7
1827.33	16740.1
1828.34	16734.4
1829.35	16730.1
1830.35	16723.9
1831.36	16716.5
1832.37	16707.2
1833.38	16689.2
1834.38	16667.9
1835.39	16639.9
1836.4	16614.7
1837.41	16592.4
1838.41	16573.1
1839.42	16556
1840.43	16543.3
1841.43	16544.3
1842.44	16538.5
1843.44	16535.1
1844.45	16517.3
1845.46	16494.9
1846.46	16471.9
1847.47	16453.1
1848.47	16437
1849.48	16422.5
1850.48	16411.2
1851.49	16402.1
1852.49	16395.7
1853.49	16391.4
1854.5	16389.7
1855.5	16388.1
1856.51	16373.9
1857.51	16362.4
1858.51	16348
1859.52	16333.8
1860.52	16319.3
1861.52	16302.3
1862.53	16285.1
1863.53	16266.2
1864.53	16246.8
1865.54	16226.1
1866.54	16210.6
1867.54	16212.3
1868.54	16211.4
1869.54	16210.5
1870.55	16209.7
1871.55	16208.7
1872.55	16210.4
1873.55	16212.2
1874.55	16215.2
1875.55	16215.6
1876.55	16203.2
1877.55	16188
1878.55	16167.5
1879.55	16141.2
1880.56	16115.9
1881.55	16095.2
1882.56	16088.3
1883.55	16079.5
1884.55	16072.3
1885.55	16050.9
1886.55	16029.5
1887.55	16007.8
1888.55	15978.3
1889.55	15967.8
1890.55	15967.5
1891.55	15964.8
1892.55	15959
1893.54	15950.5
1894.54	15940
1895.54	15926.5
1896.54	15904.1
1897.54	15894.9
1898.53	15902.7
1899.53	15908.7
1900.53	15917.1
1901.52	15916.2
1902.52	15928.8
1903.52	15912.4
1904.51	15884.1
1905.51	15852.4
1906.51	15817.5
1907.5	15786.7
1908.5	15760.5
1909.49	15738.3
1910.49	15720.9
1911.49	15707.6
1912.48	15697.5
1913.48	15690.5
1914.47	15682.9
1915.46	15679.4
1916.46	15665.7
1917.45	15649.2
1918.45	15631.4
1919.44	15611
1920.44	15591.4
1921.43	15574
1922.43	15557
1923.42	15541.4
1924.41	15530.3
1925.41	15521
1926.4	15512.9
1927.39	15505.1
1928.38	15498.1
1929.38	15491.5
1930.37	15484.8
1931.36	15478.8
1932.35	15471.9
1933.35	15463.9
1934.34	15452.4
1935.33	15439
1936.32	15422.3
1937.31	15406.8
1938.3	15392.2
1939.29	15378.9
1940.29	15368.3
1941.28	15358.9
1942.27	15350.6
1943.26	15340.2
1944.25	15319.7
1945.24	15293.6
1946.23	15272.8
1947.22	15255.6
1948.21	15237.1
1949.2	15220.8
1950.19	15205.8
1951.18	15193.3
1952.17	15184.5
1953.16	15181.3
1954.14	15186.9
1955.13	15190
1956.12	15176.7
1957.11	15159.8
1958.1	15129.9
1959.09	15100.4
1960.07	15079.1
1961.06	15063
1962.05	15060.4
1963.04	15049.4
1964.02	15039.4
1965.01	15031.2
1966	15025.1
1966.99	15021.5
1967.97	15019.7
1968.96	15021.5
1969.95	15018.9
1970.93	15009.6
1971.92	14995.3
1972.9	14966.5
1973.89	14937.3
1974.88	14912.3
1975.86	14891.6
1976.85	14874.7
1977.83	14861.9
1978.82	14853
1979.8	14848.2
1980.79	14848.1
1981.77	14853.2
1982.76	14858.9
1983.74	14861.3
1984.72	14858.3
1985.71	14837.4
1986.69	14818
1987.67	14791.1
1988.66	14762.8
1989.64	14726.8
1990.62	14690.9
1991.61	14665
1992.59	14650.8
1993.57	14660.4
1994.56	14663.9
1995.54	14648.3
1996.52	14639.3
1997.5	14630
1998.49	14624.4
1999.47	14622
2000.45	14617.7
2001.43	14607.5
2002.41	14592.2
2003.39	14570.4
2004.38	14546
2005.36	14521.3
2006.34	14500.9
2007.32	14488
2008.3	14488.7
2009.28	14489.3
2010.26	14483.5
2011.24	14475.8
2012.22	14467
2013.2	14456.7
2014.18	14444.5
2015.16	14430.9
2016.14	14415.5
2017.12	14403.6
2018.1	14391.5
2019.07	14379.8
2020.05	14362.8
2021.03	14345.2
2022.01	14327.4
2022.99	14309
2023.97	14289.4
2024.95	14271.3
2025.92	14255.6
2026.9	14246.2
2027.88	14241.5
2028.86	14241
2029.83	14244.5
2030.81	14248.3
2031.79	14250.3
2032.76	14237.8
2033.74	14215.2
2034.72	14189.7
2035.69	14153.5
2036.67	14123
2037.65	14085.2
2038.62	14070.8
2039.6	14061.8
2040.57	14059.5
2041.55	14060.4
2042.52	14061.2
2043.5	14061
2044.47	14038.9
2045.45	14018.1
2046.42	14015
2047.4	14007.8
2048.37	13998.3
2049.35	13985.5
2050.32	13969.1
2051.29	13948.6
2052.27	13927
2053.24	13909.6
2054.21	13898.7
2055.19	13906
2056.16	13924.1
2057.13	13941.3
2058.11	13923.8
2059.08	13892.7
2060.05	13850.7
2061.02	13810.2
2062	13793.5
2062.97	13770.6
2063.94	13752.4
2064.91	13736.4
2065.89	13723.2
2066.86	13711.4
2067.83	13700.6
2068.8	13690.8
2069.77	13682.4
2070.74	13674.9
2071.71	13668.2
2072.68	13661.5
2073.65	13655
2074.62	13650.3
2075.59	13642.2
2076.56	13629.4
2077.53	13605.9
2078.5	13587.6
2079.47	13572.1
2080.44	13557.4
2081.41	13543.6
2082.38	13532.6
2083.35	13523.1
2084.32	13513.4
2085.29	13499.2
2086.26	13478.7
2087.23	13457.3
2088.19	13436.8
2089.16	13417.4
2090.13	13397.7
2091.1	13378.7
2092.07	13358.7
2093.03	13339.2
2094	13320.7
2094.97	13305.9
2095.94	13312.2
2096.9	13309.3
2097.87	13317.1
2098.84	13312.9
2099.8	13311.9
2100.77	13302.8
2101.74	13275.8
2102.7	13252.4
2103.67	13230
2104.63	13212.5
2105.6	13209.3
2106.56	13208.6
2107.53	13205.2
2108.49	13194.3
2109.46	13181.3
2110.42	13165.8
2111.39	13145.4
2112.35	13121.9
2113.32	13095.9
2114.28	13069.8
2115.25	13065
2116.21	13063.3
2117.17	13067.8
2118.14	13072.4
2119.1	13072.2
2120.07	13044.9
2121.03	13004.7
2121.99	12970
2122.96	12949.4
2123.92	12956.7
2124.88	12968.6
2125.84	12947.4
2126.81	12918.8
2127.77	12887.8
2128.73	12894.7
2129.69	12969.3
2130.65	12957.6
2131.62	12939.5
2132.58	12917.1
2133.54	12889.6
2134.5	12857
2135.46	12819.7
2136.42	12792.8
2137.38	12791.1
2138.34	12811.9
2139.3	12783.8
2140.26	12773.6
2141.22	12761.1
2142.18	12747.9
2143.14	12732.4
2144.1	12714
2145.06	12691
2146.02	12686.7
2146.98	12684.2
2147.94	12682.8
2148.9	12693.3
2149.86	12704.3
2150.82	12699.5
2151.78	12682.3
2152.74	12653.2
2153.69	12619.7
2154.65	12586.8
2155.61	12556.4
2156.57	12532.8
2157.53	12507.3
2158.48	12486.3
2159.44	12467.5
2160.4	12453.2
2161.36	12443.8
2162.31	12442.8
2163.27	12451.5
2164.23	12454.7
2165.18	12452.6
2166.14	12440.5
2167.1	12421
2168.05	12396.1
2169.01	12371
2169.96	12348.3
2170.92	12324.3
2171.88	12300.9
2172.83	12272
2173.79	12243.2
2174.74	12215.2
2175.7	12189.5
2176.65	12175.2
2177.6	12165
2178.56	12159.8
2179.51	12160.2
2180.47	12164.8
2181.42	12176.4
2182.38	12085.1
2183.33	12066.9
2184.28	12053.1
2185.24	12044.1
2186.19	12030
2187.14	12015.4
2188.1	12001.7
2189.05	11985.6
2190	11974
2190.96	11964.8
2191.91	11959.6
2192.86	11953.6
2193.81	11937.4
2194.76	11920.1
2195.72	11905.4
2196.67	11893.7
2197.62	11884
2198.57	11877.7
2199.52	11871.2
2200.47	11865.2
2201.43	11859.7
2202.38	11852.1
2203.33	11837.5
2204.28	11826.1
2205.23	11812.7
2206.18	11801.9
2207.13	11800.4
2208.08	11788.7
2209.03	11773.7
2209.98	11755.4
2210.93	11729.3
2211.88	11710.8
2212.83	11703.9
2213.78	11702.1
2214.73	11695.1
2215.67	11688.4
2216.62	11682.3
2217.57	11675.2
2218.52	11666.9
2219.47	11657.4
2220.42	11645.5
2221.37	11631.4
2222.31	11611.6
2223.26	11592.1
2224.21	11575.4
2225.16	11564.4
2226.1	11554.8
2227.05	11547.7
2228	11542.9
2228.94	11538.8
2229.89	11536.2
2230.84	11535.7
2231.78	11535.1
2232.73	11528
2233.68	11513.5
2234.62	11504.4
2235.57	11493.8
2236.51	11484.7
2237.46	11477
2238.41	11480.2
2239.35	11483.2
2240.3	11485.9
2241.24	11488
2242.19	11489.9
2243.13	11492.3
2244.07	11474
2245.02	11451.3
2245.96	11430.6
2246.91	11411.6
2247.85	11396
2248.8	11392.9
2249.74	11392.2
2250.68	11393
2251.63	11395.7
2252.57	11391.9
2253.51	11377.6
2254.46	11359.4
2255.4	11341.9
2256.34	11334.4
2257.28	11326.9
2258.23	11320.9
2259.17	11316.4
2260.11	11311.4
2261.05	11308.2
2262	11305.8
2262.94	11305.1
2263.88	11305.4
2264.82	11306.4
2265.76	11306.8
2266.7	11304
2267.64	11298.6
2268.58	11295.7
2269.53	11292.9
2270.47	11290.4
2271.41	11280.9
2272.35	11271.7
2273.29	11262.5
2274.23	11256.2
2275.17	11249.4
2276.11	11244
2277.05	11241.6
2277.99	11241.2
2278.93	11238.4
2279.86	11230.9
2280.8	11224.5
2281.74	11216.7
2282.68	11206.6
2283.62	11205.8
2284.56	11209.7
2285.5	11217.7
2286.44	11228.2
2287.37	11230.6
2288.31	11225.9
2289.25	11215.6
2290.19	11204.6
2291.12	11193.7
2292.06	11183.2
2293	11176.3
2293.94	11174.1
2294.87	11172.4
2295.81	11169.4
2296.75	11163.3
2297.68	11151.9
2298.62	11139.4
2299.55	11126.9
2300.49	11115.9
2301.43	11109.2
2302.36	11104.7
2303.3	11102.4
2304.23	11103.4
2305.17	11105.1
2306.1	11104.6
2307.04	11093.9
2307.98	11075.4
2308.91	11053
2309.84	11027.9
2310.78	11004.3
2311.71	10986.4
2312.65	10974.1
2313.58	10962.8
2314.52	10952.5
2315.45	10944.2
2316.38	10937.5
2317.32	10931
2317.72	10928.3
2318.66	10921.9
2319.6	10911.7
2320.54	10897.9
2321.48	10889.5
2322.41	10880.7
2323.35	10872.7
2324.29	10865.8
2325.23	10860.6
2326.16	10857.2
2327.1	10852.3
2328.04	10844.7
2328.97	10834.4
2329.91	10821.6
2330.85	10808.1
2331.78	10793.1
2332.72	10776.4
2333.66	10762.9
2334.59	10754.8
2335.53	10749.7
2336.46	10740.3
2337.4	10730.7
2338.33	10720.2
2339.27	10707.9
2340.2	10694.6
2341.14	10680.2
2342.07	10664.8
2343.01	10648.7
2343.94	10642.1
2344.88	10647.4
2345.81	10655.9
2346.75	10668
2347.68	10678.1
2348.61	10674.9
2349.55	10665.3
2350.48	10659.2
2351.41	10652.4
2352.35	10644.4
2353.28	10636.5
2354.21	10628.5
2355.15	10620.7
2356.08	10614.8
2357.01	10609.3
2357.94	10603.8
2358.88	10597.8
2359.81	10582.2
2360.74	10561.5
2361.67	10532.3
2362.6	10511.8
2363.54	10492.4
2364.47	10496.4
2365.4	10503
2366.33	10510.5
2367.26	10517.6
2368.19	10525.4
2369.12	10519.8
2370.05	10510.6
2370.98	10500.5
2371.91	10489.9
2372.84	10482.1
2373.77	10474.8
2374.7	10467.9
2375.63	10461.9
2376.56	10456.5
2377.49	10451.3
2378.42	10446.3
2379.35	10438.3
2380.28	10429.9
2381.21	10421.8
2382.14	10415.6
2383.07	10412.6
2384	10408.9
2384.92	10410.6
2385.85	10415.9
2386.78	10427.1
2387.71	10431.8
2388.64	10432.6
2389.56	10422.6
2390.49	10385.6
2391.42	10354.8
2392.35	10308.2
2393.27	10271
2394.2	10258.9
2395.13	10262.1
2396.05	10269
2396.98	10281.5
2397.91	10286.2
2398.83	10288.3
2399.76	10277.1
2400.69	10268.7
2401.61	10260.2
2402.54	10252.8
2403.46	10245.4
2404.39	10238.5
2405.31	10232.2
2406.24	10226.5
2407.17	10221
2408.09	10217.4
2409.01	10215.7
2409.94	10214.1
2410.86	10210.3
2411.79	10204.5
2412.71	10196.4
2413.64	10186.5
2414.56	10175
2415.49	10161.9
2416.41	10146.9
2417.33	10130.3
2418.26	10112.8
2419.18	10095.3
2420.1	10081.8
2421.03	10070
2421.95	10072.5
2422.87	10076.1
2423.79	10083.7
2424.72	10091.7
2425.64	10085.2
2426.56	10077.4
2427.48	10068.6
2428.41	10046.6
2429.33	10029.4
2430.25	10008.3
2431.17	9986.4
2432.09	9965.14
2433.01	9948.71
2433.93	9934.52
2434.86	9922.93
2435.78	9914.76
2436.7	9909.49
2437.62	9907.27
2438.54	9908.25
2439.46	9912.31
2440.38	9911.07
2441.3	9897.94
2442.22	9881.42
2443.14	9860.44
2444.06	9831.49
2444.98	9807.2
2445.9	9782.05
2446.82	9770.78
2447.73	9765.89
2448.65	9762
2449.57	9756.14
2450.49	9751.85
2451.41	9754.37
2452.33	9748.17
2453.25	9734.64
2454.17	9712.28
2455.08	9687.82
2456	9667.36
2456.92	9650.97
2457.84	9647.98
2458.75	9658.35
2459.67	9677.98
2460.59	9688.4
2461.51	9687.35
2462.42	9681.04
2463.34	9670.03
2464.26	9654.51
2465.17	9634.67
2466.09	9609.82
2467	9579.63
2467.92	9555.13
2468.84	9533.23
2469.75	9530.58
2470.67	9524.11
2471.58	9522.43
2472.5	9520.82
2473.42	9521.59
2474.33	9521.43
2475.25	9519.79
2476.16	9516.62
2477.08	9510.79
2477.99	9504.65
2478.9	9499.45
2479.82	9494.25
2480.73	9492.52
2481.65	9490.63
2482.56	9488.62
2483.47	9484.92
2484.39	9478.21
2485.3	9467.61
2486.22	9454.98
2487.13	9443.09
2488.04	9429.16
2488.96	9413.78
2489.87	9399.02
2490.78	9388.56
2491.69	9385.74
2492.61	9381.02
2493.52	9376.26
2494.43	9373.89
2495.34	9373.2
2496.25	9374.88
2497.17	9377.08
2498.08	9379.4
2498.99	9374.76
2499.9	9365.48
2500.81	9358.15
2501.72	9351.06
2502.63	9344.59
2503.55	9338.54
2504.46	9333.38
2505.37	9328.8
2506.28	9324.82
2507.19	9321.19
2508.1	9317.85
2509.01	9314.67
2509.92	9312.13
2510.83	9308.59
2511.74	9300.22
2512.65	9286.37
2513.56	9256.46
2514.47	9235.04
2515.37	9218.49
2516.28	9216.44
2517.19	9218.99
2518.1	9221.21
2519.01	9224.57
2519.92	9228.22
2520.83	9232.56
2521.73	9236.94
2522.64	9240.8
2523.55	9242.72
2524.46	9235.59
2525.37	9216.15
2526.27	9200.06
2527.18	9186.67
2528.09	9174.8
2529	9163.97
2529.9	9161.66
2530.81	9164.14
2531.72	9160.96
2532.62	9144.33
2533.53	9121.12
2534.44	9104.57
2535.34	9095.05
2536.25	9093.23
2537.15	9097.95
2538.06	9107.03
2538.96	9115.71
2539.87	9125.47
2540.78	9116.1
2541.68	9101.62
2542.59	9079.97
2543.49	9054.08
2544.4	9026.39
2545.3	9001.79
2546.21	8980.46
2547.11	8970.89
2548.01	8967.53
2548.92	8966.97
2549.82	8965.61
2550.73	8961.62
2551.63	8957.83
2552.53	8951.53
2553.44	8943.6
2554.34	8933.52
2555.24	8921.74
2556.15	8907.88
2557.05	8893.28
2557.95	8875.36
2558.86	8868.12
2559.76	8865.82
2560.66	8872.7
2561.56	8877.82
2562.46	8878.55
2563.37	8877.84
2564.27	8872.49
2565.17	8865.04
2566.07	8851.76
2566.97	8836.55
2567.88	8810.99
2568.78	8785.11
2569.68	8763.92
2570.58	8746.38
2571.48	8747.5
2572.38	8750.38
2573.28	8739.44
2574.18	8717.54
2575.08	8699.05
2575.98	8690.55
2576.88	8687.56
2577.78	8685.32
2578.68	8684.22
2579.58	8668.53
2580.48	8650.8
2581.38	8633.99
2582.28	8617.97
2583.18	8602.95
2584.08	8593.47
2584.98	8593.43
2585.88	8601.51
2586.77	8618.86
2587.67	8628.58
2588.57	8630.15
2589.47	8624.03
2590.37	8610.63
2591.27	8589.87
2592.16	8568.38
2593.06	8552.45
2593.96	8538.65
2594.86	8536.66
2595.75	8538.17
2596.65	8540.14
2597.55	8540
2598.45	8533.42
2599.34	8525.54
2600.24	8514.56
2601.13	8499.46
2602.03	8480.99
2602.93	8459.4
2603.82	8440.17
2604.72	8436.96
2605.62	8438.58
2606.51	8449.56
2607.41	8455.77
2608.3	8454.41
2609.2	8445.86
2610.09	8415.74
2610.99	8396.84
2611.88	8370.88
2612.78	8357.56
2613.67	8349.2
2614.57	8356.84
2615.46	8385.45
2616.36	8396.48
2617.25	8410.64
2618.14	8397.14
2619.04	8347.6
2619.93	8324.8
2620.83	8304.86
2621.72	8321.79
2622.61	8328.14
2623.5	8330.45
2624.4	8326.33
2625.29	8297.46
2626.18	8279.72
2627.08	8260.68
2627.97	8243.79
2628.86	8231.75
2629.75	8221.79
2630.65	8215.84
2631.54	8211.53
2632.43	8208.17
2633.32	8205.33
2634.21	8199.23
2635.11	8193.8
2636	8187.68
2636.89	8180.76
2637.78	8173.88
2638.67	8159.6
2639.56	8140.94
2640.45	8119.31
2641.34	8103.4
2642.23	8088.74
2643.12	8074.63
2644.01	8060.83
2644.9	8048.15
2645.79	8036.26
2646.68	8025.74
2647.57	8017.02
2648.46	8009.9
2649.35	8002.9
2650.24	7995.71
2651.13	7988.07
2652.02	7979.28
2652.91	7970.81
2653.8	7963.17
2654.69	7957.8
2655.58	7954.2
2656.46	7952.52
2657.35	7953.07
2658.24	7956.2
2659.13	7958.82
2660.02	7958.83
2660.9	7950.04
2661.79	7926.42
2662.68	7905.31
2663.57	7883.01
2664.45	7863.73
2665.34	7856.3
2666.23	7853.88
2667.11	7855.3
2668	7860.15
2668.89	7856.52
2669.77	7851.65
2670.66	7846.41
2671.55	7840.38
2672.43	7834.63
2673.32	7830.83
2674.21	7828.21
2675.09	7826.5
2675.98	7821.27
2676.86	7813.4
2677.75	7802.79
2678.63	7790.17
2679.52	7775.92
2680.4	7760.66
2681.29	7745.02
2682.17	7729.51
2683.06	7714.3
2683.94	7699.32
2684.82	7684.88
2685.71	7667.48
2686.59	7638.33
2687.48	7655.24
2688.36	7667.86
2689.24	7666.19
2690.13	7644.27
2691.01	7591.03
2691.89	7574.86
2692.78	7591.48
2693.66	7598.18
2694.54	7602.26
2695.43	7602.09
2696.31	7592.99
2697.19	7565.5
2698.07	7551.17
2698.96	7535.51
2699.84	7523.53
2700.72	7522.72
2701.6	7523.27
2702.48	7530.32
2703.36	7526.64
2704.25	7519.2
2705.13	7505.69
2706.01	7501.88
2706.89	7500.06
2707.77	7499.81
2708.65	7501.77
2709.53	7504.86
2710.41	7495.03
2711.29	7487.72
2712.17	7476.29
2713.05	7463.95
2713.93	7450.11
2714.81	7434.36
2715.69	7416.78
2716.57	7396.02
2717.45	7376.97
2718.33	7442.03
2719.21	7436.83
2720.09	7432.52
2720.97	7420.35
2721.85	7381.54
2722.73	7361.9
2723.61	7346.93
2724.48	7363.35
2725.36	7372.07
2726.24	7368.96
2727.12	7365.22
2728	7347.82
2728.88	7328.49
2729.75	7309.89
2730.63	7299.04
2731.51	7303.41
2732.39	7311.17
2733.26	7321.48
2734.14	7317.06
2735.02	7290.87
2735.89	7278.68
2736.77	7267.43
2737.65	7256.04
2738.52	7247.75
2739.4	7243.39
2740.28	7240.87
2741.15	7238.52
2742.03	7235.75
2742.9	7232.79
2743.78	7227.8
2744.65	7222.72
2745.53	7215.88
2746.41	7208.33
2747.28	7199.89
2748.16	7192.33
2749.03	7189.42
2749.91	7187.27
2750.78	7185.52
2751.66	7178.53
2752.53	7172.27
2753.4	7166.21
2754.28	7160.1
2755.15	7154.16
2756.02	7148.17
2756.9	7142.63
2757.77	7137.05
2758.65	7131.33
2759.52	7125.3
2760.39	7116.7
2761.27	7106.63
2762.14	7094.71
2763.01	7081.45
2763.88	7061.93
2764.76	7053.06
2765.63	7053.61
2766.5	7056.33
2767.37	7061.78
2768.25	7071.54
2769.12	7082.78
2769.99	7064.51
2770.86	7035.71
2771.73	7008.61
2772.61	7012.31
2773.48	7026.94
2774.35	7022.36
2775.22	7005.01
2776.09	6989.82
2776.96	6978.35
2777.83	6973.04
2778.7	6966.97
2779.57	6959.84
2780.44	6953.62
2781.31	6948.56
2782.18	6941.77
2783.05	6931.27
2783.92	6913.22
2784.79	6902.37
2785.66	6897.66
2786.53	6894.24
2787.4	6889.96
2788.27	6885.26
2789.14	6880.39
2790.01	6875.46
2790.88	6870.78
2791.75	6866.08
2792.62	6862.39
2793.48	6860.42
2794.35	6857.59
2795.22	6853.77
2796.09	6848.43
2796.96	6842.27
2797.82	6835.12
2798.69	6826.39
2799.56	6816.74
2800.43	6805.65
2801.29	6793.27
2802.16	6780.51
2803.03	6767.84
2803.9	6763.03
2804.76	6761.3
2805.63	6759.65
2806.5	6758.16
2807.36	6752.69
2808.23	6746.25
2809.09	6738.5
2809.96	6729.16
2810.83	6718.35
2811.69	6705.84
2812.56	6691.95
2813.42	6680.92
2814.29	6670.33
2815.15	6667.18
2816.02	6665.72
2816.88	6668.93
2817.75	6674.03
2818.61	6679.48
2819.48	6683.48
2820.34	6683.03
2821.21	6634.37
2822.07	6640.16
2822.94	6642.45
2823.8	6638.49
2824.66	6633.85
2825.53	6626.82
2826.39	6617.03
2827.26	6604.3
2828.12	6589.56
2828.98	6573.1
2829.85	6558.91
2830.71	6559.66
2831.57	6559.47
2832.43	6560.8
2833.3	6570.14
2834.16	6573.75
2835.02	6570.25
2835.88	6560.56
2836.75	6543.73
2837.61	6531.91
2838.47	6528.66
2839.33	6530.64
2840.19	6526.08
2841.06	6523.45
2841.92	6513.69
2842.78	6503.5
2843.64	6491.25
2844.5	6478.14
2845.36	6464.36
2846.22	6452.84
2847.08	6465.05
2847.94	6472.61
2848.81	6475.78
2849.67	6475.89
2850.53	6462.58
2851.39	6459.61
2852.25	6453.42
2853.11	6446.92
2853.97	6440.69
2854.82	6435.04
2855.68	6430.2
2856.54	6425.95
2857.4	6422.83
2858.26	6420.69
2859.12	6420.27
2859.98	6412.83
2860.84	6396.28
2861.7	6379.64
2862.56	6364.31
2863.41	6353.88
2864.27	6344.23
2865.13	6336.33
2865.99	6330.63
2866.85	6326.84
2867.7	6324.38
2868.56	6322.98
2869.42	6319.34
2870.28	6312.33
2871.13	6310.57
2871.99	6310.27
2872.85	6311.12
2873.7	6313.02
2874.56	6316.07
2875.42	6320.21
2876.27	6320.99
2877.13	6318.47
2877.99	6304.94
2878.84	6287.87
2879.7	6272.63
2880.56	6261.02
2881.41	6246.6
2882.27	6239.25
2883.12	6233.3
2883.98	6228.71
2884.83	6225.52
2885.69	6222.97
2886.54	6220.65
2887.4	6210.54
2888.25	6203.32
2889.11	6196.95
2889.96	6192
2890.82	6189.03
2891.67	6187.22
2892.52	6177.34
2893.38	6160.64
2894.23	6152.03
2895.09	6145.16
2895.94	6132.66
2896.79	6126.44
2897.65	6135.1
2898.5	6136.29
2899.35	6132.98
2900.21	6113.2
2901.06	6095.61
2901.91	6087.1
2902.76	6084.47
2903.62	6094.98
2904.47	6092.53
2905.32	6085.11
2906.17	6076.26
2907.03	6060.77
2907.88	6047.99
2908.73	6035.03
2909.58	6023.94
2910.43	6009.96
2911.28	5998.06
2912.14	5985.53
2912.99	5988.42
2913.84	6010.4
2914.69	6015.25
2915.54	5996.36
2916.39	5981.58
2917.24	5969.8
2918.09	5961.26
2918.94	5955.61
2919.79	5953.12
2920.64	5954.86
2921.49	5958.91
2922.34	5957.32
2923.19	5954.02
2924.04	5943.11
2924.89	5933.6
2925.74	5927.35
2926.59	5924.2
2927.44	5925.12
2928.29	5935.07
2929.14	5932.54
2929.98	5919.38
2930.83	5894.6
2931.68	5872.49
2932.53	5847.44
2933.38	5840.85
2934.23	5840.98
2935.07	5842.47
2935.92	5847.47
2936.77	5850.03
2937.62	5849.11
2938.47	5844.13
2939.31	5835.4
2940.16	5823.26
2941.01	5810.39
2941.85	5803.2
2942.7	5804.45
2943.55	5809.13
2944.39	5811.08
2945.24	5809.5
2946.09	5803.82
2946.93	5793.77
2947.78	5780.49
2948.63	5762.35
2949.47	5749.06
2950.32	5737.26
2951.16	5737.81
2952.01	5746.62
2952.85	5753.18
2953.7	5754.58
2954.55	5753.68
2955.39	5750.79
2956.24	5742.72
2957.08	5731.84
2957.92	5718.8
2958.77	5704.83
2959.61	5690.96
2960.46	5682.31
2961.3	5674.99
2962.15	5672.15
2962.99	5670.62
2963.83	5670.64
2964.68	5669.64
2965.52	5661.44
2966.37	5651.74
2967.21	5640.38
2968.05	5626.58
2968.9	5610.97
2969.74	5592.11
2970.58	5584.38
2971.42	5581.45
2972.27	5585.87
2973.11	5590
2973.95	5590.09
2974.79	5588.47
2975.64	5584.21
2976.48	5578.64
2977.32	5570.19
2978.16	5559.98
2979	5547.91
2979.85	5535.38
2980.69	5529.9
2981.53	5529.89
2982.37	5529.88
2983.21	5525.93
2984.05	5521.06
2984.89	5515.6
2985.73	5509.79
2986.57	5504.56
2987.41	5509.3
2988.25	5515.84
2989.1	5520.85
2989.94	5528.56
2990.77	5504.54
2991.62	5492.55
2992.45	5499.51
2993.29	5498.23
2994.13	5493.65
2994.97	5489.73
2995.81	5481.23
2996.65	5473.62
2997.49	5472.57
2998.33	5476.97
2999.17	5489.93
