200.833	18149
202.102	18213.9
203.371	18207.9
204.639	18228.3
205.907	18268.8
207.175	18293.4
208.442	18308.7
209.71	18322.8
210.977	18334.8
212.244	18346.7
213.511	18358.1
214.777	18370.1
216.042	18384
217.309	18400.3
218.575	18422
219.84	18450.1
221.106	18487.2
222.371	18522.5
223.635	18558.7
224.9	18593.5
226.165	18626.1
227.429	18658.2
228.694	18691.7
229.956	18727.8
231.22	18767.7
232.484	18816.6
233.747	18870.1
235.011	18916.6
236.272	18953.5
237.535	18998.1
238.798	19023.7
240.06	19038.1
241.321	19045.1
242.583	19054.2
243.845	19064.6
245.105	19081.3
246.367	19101.2
247.628	19124.6
248.888	19149
250.149	19176.8
251.409	19205.2
252.67	19211.7
253.928	19213.1
255.189	19213.7
256.447	19219.4
257.707	19226.9
258.966	19234.8
260.224	19243.7
261.483	19254
262.742	19263.2
263.999	19285.3
265.257	19337.2
266.514	19394.7
267.772	19418.9
269.028	19409.3
270.286	19407.8
271.543	19417
272.799	19430
274.056	19445.9
275.311	19449.1
276.568	19454.5
277.823	19460.4
279.079	19470.9
280.333	19537.8
281.589	19617.2
282.843	19631.4
284.099	19648.4
285.352	19668.3
286.607	19691
287.86	19716.7
289.114	19745
290.368	19776
291.621	19810.9
292.875	19848.1
294.127	19862.4
295.38	19868
296.632	19865.9
297.884	19853.7
299.137	19868.5
300.388	19883.4
301.641	19904.1
302.891	19922.8
304.142	19937.5
305.394	19946.5
306.644	19950.3
307.894	19949.5
309.146	19944.6
310.395	19934.7
311.645	19932
312.895	19938.5
314.144	19950.3
315.393	19965.8
316.642	19983.4
317.892	20003.3
319.14	20026.5
320.388	20052.3
321.637	20080.3
322.885	20108
324.132	20130.2
325.38	20147.2
326.628	20162.2
327.875	20157.5
329.122	20138.6
330.368	20139.1
331.614	20147.4
332.862	20207
334.108	20271.9
335.353	20400.9
336.599	20316.2
337.844	20310.4
339.089	20298.1
340.335	20385.5
341.58	20443.1
342.824	20460.4
344.068	20399.1
345.312	20382.7
346.556	20395
347.8	20418.1
349.043	20423.1
350.286	20434.4
351.53	20458.8
352.774	20480.7
354.016	20510.3
355.259	20484.4
356.501	20469.3
357.743	20456.9
358.985	20439.4
360.227	20422.8
361.468	20411
362.709	20409.1
363.95	20412.9
365.191	20420.8
366.432	20433.9
367.672	20452.9
368.912	20476.9
370.152	20499.5
371.392	20516.4
372.632	20527.9
373.871	20534.3
375.11	20537
376.348	20540.6
377.587	20544.9
378.825	20548.3
380.064	20560.3
381.302	20568.4
382.54	20576.8
383.778	20575.8
385.016	20567.2
386.253	20553
387.489	20537.8
388.726	20585
389.963	20611.2
391.199	20641.3
392.436	20669.6
393.672	20697.1
394.907	20720.8
396.142	20739.8
397.378	20755.3
398.614	20767.8
399.849	20777
401.082	20782.6
402.317	20784.8
403.552	20783.9
404.786	20780.2
406.019	20778.6
407.253	20779.3
408.487	20786.3
409.721	20797.8
410.953	20825.3
412.186	20853.7
413.419	20871.1
414.651	20885.8
415.883	20897.5
417.116	20906.6
418.347	20912.7
419.579	20915.9
420.811	20915.3
422.041	20910.9
423.272	20901.7
424.504	20884.9
425.733	20864.1
426.964	20843.5
428.194	20844.3
429.424	20863.5
430.654	20897
431.883	20914.3
433.113	20928.7
434.341	20941.2
435.571	20950.9
436.799	20957.8
438.028	20961.5
439.257	20969.5
440.484	20982
441.713	20996.7
442.94	21002.8
444.168	21002.8
445.394	21008.7
446.622	21018.9
447.848	21033.1
449.076	21049.8
450.301	21070.5
451.528	21093.5
452.754	21118.3
453.979	21143.9
455.205	21148.2
456.43	21139.2
457.656	21122.8
458.88	21109.8
460.106	21105.1
461.33	21105.1
462.554	21112.8
463.779	21123.6
465.002	21135.1
466.225	21145.3
467.45	21154
468.672	21162.4
469.895	21169.9
471.119	21176.3
472.341	21179.8
473.563	21171.6
474.786	21162.4
476.008	21160.7
477.229	21152.4
478.452	21153.2
479.673	21151.8
480.894	21144.3
482.115	21134.3
483.337	21083.3
484.557	21049.2
485.777	21021.4
486.997	21028.1
488.218	21065.3
489.438	21042.9
490.657	21038.4
491.876	21030.4
493.096	21025.3
494.315	21024.1
495.533	21027.6
496.752	21035.9
497.97	21048.1
499.188	21065
500.407	21084.5
501.625	21098.3
502.842	21107.9
504.059	21109.9
505.276	21101.3
506.493	21091.5
507.71	21081.4
508.926	21082.2
510.142	21088.4
511.358	21094.1
512.575	21100.7
513.791	21109.1
515.006	21118.2
516.222	21128.4
517.437	21137.7
518.651	21145.1
519.866	21147
521.081	21138.8
522.295	21147.2
523.509	21165.4
524.723	21176.6
525.937	21211.3
527.15	21240
528.363	21263.8
529.576	21280
530.789	21287
532.002	21280.2
533.215	21268.2
534.426	21263.7
535.638	21262.1
536.85	21265.5
538.061	21270.5
539.273	21274.7
540.484	21274
541.695	21277.6
542.906	21273.1
544.117	21239.7
545.327	21298.1
546.537	21342.6
547.747	21349.5
548.957	21340.2
550.167	21329.3
551.377	21317.4
552.585	21312.3
553.794	21304.3
555.003	21298.2
556.212	21294.1
557.421	21292.2
558.628	21293
559.836	21298
561.044	21321.3
562.252	21342.2
563.458	21347.5
564.666	21337.8
565.873	21332.1
567.08	21328.5
568.286	21322.5
569.493	21314.8
570.699	21308
571.904	21303.9
573.111	21301.6
574.317	21301.6
575.521	21303
576.727	21306.3
577.932	21311.5
579.136	21318.6
580.341	21328.4
581.544	21339.3
582.749	21373.5
583.954	21329
585.156	21294.8
586.361	21314.9
587.563	21338.3
588.767	21334.9
589.97	21335.6
591.172	21338.9
592.375	21345.4
593.577	21356
594.78	21365.3
595.981	21372.7
597.183	21374.9
598.384	21371.3
599.586	21364
600.786	21356.1
601.988	21345.8
603.188	21338.7
604.389	21338.4
605.589	21334.9
606.79	21317.1
607.989	21277.8
609.188	21257.6
610.389	21251.9
611.587	21267.3
612.787	21255.5
613.986	21210.9
615.184	21169.5
616.383	21153.5
617.581	21140.9
618.78	21134.9
619.977	21131.9
621.174	21129.8
622.373	21134.6
623.57	21141.5
624.766	21146.9
625.964	21151.7
627.16	21148.6
628.356	21138.1
629.554	21098.2
630.749	21087.3
631.945	21085.2
633.14	21083.2
634.337	21082.1
635.532	21086.7
636.726	21079.1
637.921	21069.1
639.117	21057.8
640.311	21045.3
641.505	21032
642.699	21019.1
643.892	21007.8
645.087	20998.3
646.28	20991.2
647.473	20985.4
648.666	20981.4
649.859	20979.1
651.051	20978.6
652.245	20979.9
653.437	20983.1
654.629	20988.2
655.821	20987.1
657.012	20985.9
658.204	20978.3
659.395	20951.6
660.586	20943.6
661.777	20942.2
662.967	20958.6
664.158	20977.5
665.349	20999
666.539	21019
667.729	21035.7
668.919	21051.3
670.109	21066.8
671.298	21080.8
672.487	21093.6
673.676	21104.9
674.865	21115
676.053	21123
677.242	21129.9
678.43	21135.5
679.616	21140
680.804	21140.9
681.992	21137
683.179	21126.5
684.366	21099.2
685.554	21066.8
686.74	21032.2
687.927	21010.5
689.114	20999.2
690.3	21012.1
691.486	21032.5
692.671	21048.6
693.856	21062.7
695.042	21064.8
696.227	21049.6
697.413	21023.3
698.598	20995.5
699.781	20972
700.966	20953.1
702.15	20935.5
703.334	20921.4
704.518	20911.9
705.701	20905.4
706.885	20880.3
708.068	20861.7
709.252	20849.3
710.433	20840.3
711.616	20833.4
712.799	20821.7
713.98	20830.3
715.163	20854.5
716.345	20894.1
717.527	20892.8
718.707	20880.5
719.889	20844.3
721.071	20821.8
722.25	20810
723.432	20809
724.611	20817.4
725.792	20847.3
726.972	20859.3
728.151	20862
729.332	20852.8
730.512	20842.3
731.69	20831.9
732.87	20819.8
734.048	20829.6
735.227	20837.1
736.405	20853.7
737.584	20867.4
738.761	20869.4
739.94	20867.3
741.117	20868.9
742.295	20873.6
743.471	20882.1
744.649	20892.6
745.825	20906
747.003	20921.6
748.179	20939.9
749.356	20961.4
750.531	20984.2
751.708	21006.2
752.883	21019.2
754.059	21012.5
755.234	21001.6
756.409	20985.3
757.585	20975.7
758.759	20964.8
759.934	20950
761.108	20936.3
762.282	20921.5
763.456	20906.8
764.63	20894.5
765.803	20885.2
766.977	20873.1
768.15	20852.3
769.323	20816.3
770.496	20807.7
771.668	20795.7
772.841	20790
774.014	20796.9
775.185	20795.1
776.357	20792.8
777.528	20790.1
778.701	20786.4
779.872	20783.1
781.042	20778.3
782.213	20771.8
783.383	20762.2
784.555	20741.1
785.725	20723.2
786.895	20703.9
788.064	20681.4
789.234	20658.8
790.404	20637.1
791.573	20617.2
792.742	20598.9
793.911	20582.1
795.08	20565.7
796.248	20551.7
797.416	20540.6
798.584	20543.9
799.753	20562.5
800.921	20575.5
802.088	20610.4
803.256	20561.7
804.423	20565
805.59	20573.5
806.756	20574.7
807.923	20569.5
809.089	20556.8
810.256	20541.9
811.422	20524.8
812.587	20518
813.753	20527.4
814.918	20541.4
816.084	20562.9
817.249	20586.6
818.414	20603.8
819.578	20621.1
820.743	20618.9
821.907	20611.6
823.072	20609
824.236	20603.4
825.399	20597.9
826.562	20592.5
827.725	20588.3
828.889	20584.9
830.052	20582.9
831.215	20588.2
832.377	20600.7
833.54	20636.4
834.701	20676.5
835.863	20690
837.025	20681.8
838.187	20682
839.349	20675.7
840.51	20667.6
841.67	20658
842.831	20647.2
843.992	20635
845.153	20621.3
846.312	20606.4
847.473	20590.6
848.633	20573.8
849.793	20557.1
850.951	20541.6
852.111	20528.4
853.27	20516.5
854.428	20506.1
855.588	20496.4
856.747	20481.4
857.904	20450.6
859.063	20441.7
860.221	20442.8
861.378	20441.8
862.536	20435
863.694	20422.7
864.85	20406.8
866.008	20386.2
867.164	20359.9
868.321	20329.2
869.478	20293.8
870.633	20255.6
871.79	20255.5
872.945	20252.2
874.101	20262.2
875.256	20263.6
876.412	20251.5
877.566	20232.3
878.722	20208.2
879.876	20183.6
881.031	20157.1
882.185	20136.1
883.34	20118.3
884.493	20102.4
885.647	20089.1
886.8	20079.1
887.954	20072.8
889.107	20072.2
890.261	20087.2
891.413	20114.6
892.565	20121.2
893.718	20123.6
894.87	20124.6
896.023	20117
897.174	20110.4
898.326	20104.7
899.478	20101.6
900.629	20100.3
901.779	20101.1
902.931	20103.4
904.081	20108
905.231	20114.3
906.383	20122.7
907.532	20131.5
908.682	20135.6
909.831	20136.3
910.982	20127
912.131	20117.7
913.28	20106.9
914.429	20091.5
915.578	20097.8
916.727	20107.9
917.875	20117.3
919.023	20129.4
920.171	20141
921.32	20141.7
922.467	20138.9
923.614	20132.7
924.761	20136.6
925.908	20141.4
927.055	20148.4
928.203	20152.1
929.349	20151.2
930.496	20147.2
931.642	20140
932.787	20126.6
933.933	20112.2
935.079	20098.6
936.224	20086.4
937.369	20077.1
938.514	20068.6
939.659	20062.1
940.804	20056.9
941.948	20053.8
943.092	20052.1
944.236	20051.2
945.38	20050.6
946.524	20042.9
947.667	20049.3
948.811	20057.5
949.954	20148.6
951.097	20066.8
952.24	20038.4
953.383	20005
954.525	19971.3
955.667	19941.8
956.81	19939.4
957.952	19935.2
959.093	19929.1
960.235	19923.6
961.376	19912
962.516	19875.5
963.658	19855.8
964.798	19831.7
965.939	19810.2
967.08	19805
968.22	19800.8
969.359	19801.4
970.499	19801
971.639	19794.9
972.779	19778
973.918	19755.8
975.056	19748.3
976.195	19750
977.334	19759.9
978.473	19778.3
979.61	19802
980.749	19829
981.887	19860.4
983.024	19875.6
984.162	19871.3
985.3	19844.4
986.437	19801.2
987.573	19780.6
988.711	19780.2
989.848	19774.8
990.983	19773.8
992.12	19784.2
993.255	19795.8
994.392	19802.2
995.528	19795.1
996.662	19799.8
997.798	19809.3
998.933	19830
1000.07	19847.7
1001.2	19857.5
1002.34	19865.3
1003.47	19871.1
1004.61	19872.1
1005.74	19868.6
1006.87	19861.1
1008.01	19848.2
1009.14	19827.5
1010.27	19800.3
1011.41	19766
1012.54	19735.6
1013.67	19752.2
1014.81	19761.6
1015.94	19762.5
1017.07	19756.4
1018.2	19753.9
1019.33	19743.9
1020.47	19709.1
1021.6	19683.7
1022.73	19690.3
1023.86	19715.2
1024.99	19748
1026.12	19756.1
1027.25	19749.8
1028.38	19689.2
1029.51	19663
1030.64	19641.4
1031.77	19622
1032.9	19601.1
1034.03	19587.3
1035.16	19576
1036.29	19568.2
1037.42	19563.8
1038.55	19563.7
1039.67	19566.4
1040.8	19556.1
1041.93	19551.9
1043.06	19522.5
1044.19	19474.5
1045.31	19433.8
1046.44	19406.9
1047.57	19403.3
1048.69	19424.4
1049.82	19424
1050.95	19424.4
1052.08	19418.7
1053.2	19410.2
1054.33	19391.1
1055.45	19369.6
1056.58	19346.3
1057.7	19322.9
1058.83	19313.2
1059.95	19327
1061.08	19331.8
1062.2	19333.4
1063.33	19324.3
1064.45	19320.5
1065.58	19303.1
1066.7	19289.5
1067.83	19274.7
1068.95	19258.9
1070.07	19261.5
1071.2	19281.4
1072.32	19278.1
1073.44	19269.5
1074.56	19243
1075.69	19225.2
1076.81	19199.9
1077.93	19199
1079.05	19197.1
1080.17	19213.7
1081.3	19233.6
1082.42	19261
1083.54	19298.9
1084.66	19316.7
1085.78	19323.3
1086.9	19318.6
1088.02	19316.3
1089.14	19319.8
1090.26	19319
1091.38	19316.4
1092.5	19312.4
1093.62	19307.9
1094.74	19303.1
1095.86	19292.6
1096.98	19291.5
1098.1	19300.2
1099.22	19317.9
1100.34	19329.4
1101.45	19314.8
1102.57	19273.3
1103.69	19230.8
1104.81	19243.2
1105.93	19236.1
1107.04	19227
1108.16	19223.9
1109.28	19207.6
1110.4	19184.2
1111.51	19156.8
1112.63	19128.8
1113.75	19103.3
1114.86	19099.7
1115.98	19101.1
1117.09	19087.9
1118.21	19077.4
1119.32	19066.8
1120.44	19050.2
1121.55	19041.2
1122.67	19030.9
1123.78	19020.1
1124.9	19008.4
1126.01	18995.5
1127.13	18979.8
1128.24	18954.6
1129.35	18934.3
1130.47	18915
1131.58	18899.4
1132.7	18889.1
1133.81	18873.4
1134.92	18840.9
1136.03	18821.6
1137.15	18802.5
1138.26	18785
1139.37	18768.7
1140.48	18754.1
1141.59	18740.9
1142.71	18729.5
1143.82	18715.2
1144.93	18703.4
1146.04	18693.2
1147.15	18683.9
1148.26	18675.1
1149.37	18666.5
1150.48	18657.4
1151.59	18644.7
1152.7	18627.2
1153.81	18611.1
1154.92	18595.2
1156.03	18581
1157.14	18569.3
1158.25	18561
1159.36	18555.2
1160.47	18549.8
1161.58	18547.3
1162.68	18546.8
1163.79	18547.4
1164.9	18548.2
1166.01	18549.4
1167.12	18550.7
1168.22	18552.4
1169.33	18554.3
1170.44	18555.9
1171.55	18557.6
1172.65	18559.1
1173.76	18560.4
1174.87	18536.5
1175.97	18503.6
1177.08	18472.1
1178.18	18449.5
1179.29	18458.8
1180.4	18503.4
1181.5	18546.2
1182.61	18622.8
1183.71	18604.2
1184.82	18578.4
1185.92	18564.1
1187.02	18550
1188.13	18540.9
1189.23	18536
1190.34	18534.5
1191.44	18537.1
1192.54	18544.5
1193.65	18556.2
1194.75	18579.6
1195.85	18596.2
1196.96	18588.3
1198.06	18568
1199.16	18545.9
1200.26	18533
1201.37	18521.7
1202.47	18512.9
1203.57	18506.5
1204.67	18503
1205.77	18501.9
1206.87	18503.1
1207.97	18506.6
1209.08	18505.5
1210.18	18492.1
1211.28	18478
1212.38	18465.1
1213.48	18452.3
1214.58	18440.5
1215.68	18428.8
1216.78	18428.1
1217.88	18436.1
1218.98	18452.7
1220.07	18454.1
1221.17	18449.2
1222.27	18437.4
1223.37	18420.2
1224.47	18396.1
1225.57	18375.5
1226.66	18362.5
1227.76	18361.3
1228.86	18357.1
1229.96	18350.1
1231.06	18339.5
1232.15	18324.3
1233.25	18307.1
1234.35	18293.4
1235.44	18283.3
1236.54	18274.1
1237.63	18263.2
1238.73	18249.5
1239.83	18234.9
1240.92	18218.5
1242.02	18200.6
1243.11	18180.6
1244.21	18158.8
1245.3	18134.2
1246.4	18109.6
1247.49	18092.7
1248.59	18107
1249.68	18121.2
1250.78	18151.7
1251.87	18195.4
1252.96	18219.6
1254.06	18225.1
1255.15	18210.3
1256.24	18186.2
1257.34	18163.7
1258.43	18138.9
1259.52	18109.1
1260.62	18091.1
1261.71	18081.1
1262.8	18107.1
1263.89	18122.6
1264.98	18097.9
1266.08	18075.7
1267.17	18060.3
1268.26	18058.2
1269.35	18060.7
1270.44	18064.3
1271.53	18070.7
1272.62	18080.1
1273.71	18091.9
1274.8	18084.9
1275.89	18081.4
1276.98	18083.2
1278.07	18091.7
1279.16	18098
1280.25	18094.3
1281.34	18091.7
1282.43	18085
1283.52	18076.8
1284.61	18066.6
1285.69	18058.2
1286.78	18090.9
1287.87	18108.7
1288.96	18117.9
1290.05	18112.8
1291.13	18073.2
1292.22	18079.8
1293.31	18088.3
1294.4	18101.8
1295.48	18116.2
1296.57	18125.7
1297.66	18130.1
1298.74	18135.9
1299.83	18141.2
1300.92	18142.5
1302	18140.1
1303.09	18132.8
1304.17	18122.6
1305.26	18108
1306.34	18090.5
1307.43	18072.3
1308.51	18058.7
1309.6	18056.5
1310.68	18055.2
1311.76	18057.9
1312.85	18057.9
1313.93	18050.3
1315.02	18043.7
1316.1	18037.5
1317.18	18025.3
1318.27	18019.1
1319.35	18015.2
1320.43	18009.8
1321.52	18001.9
1322.6	17992.3
1323.68	17983.8
1324.76	17974.6
1325.85	17971
1326.93	17969.1
1328.01	17967.1
1329.09	17965.6
1330.17	17961.1
1331.25	17956
1332.33	17947.9
1333.41	17914.9
1334.49	17895.3
1335.58	17888.9
1336.65	17893.3
1337.74	17929.7
1338.82	17912.8
1339.89	17907.3
1340.97	17890.7
1342.05	17869.2
1343.13	17848
1344.21	17830.4
1345.29	17817.3
1346.37	17807.1
1347.45	17800.1
1348.53	17796.1
1349.6	17795
1350.68	17796.4
1351.76	17795.3
1352.84	17793.2
1353.92	17790.5
1354.99	17789.5
1356.07	17788.1
1357.15	17781
1358.22	17769.3
1359.3	17760.5
1360.38	17764.2
1361.45	17782.5
1362.53	17807.8
1363.61	17823.4
1364.68	17835.4
1365.76	17815.8
1366.83	17800.1
1367.91	17786.4
1368.98	17772.7
1370.06	17765.1
1371.13	17760.7
1372.21	17757.9
1373.28	17757.2
1374.35	17757.5
1375.43	17758.5
1376.5	17750.9
1377.58	17737.9
1378.65	17724.5
1379.72	17708
1380.8	17697
1381.87	17695.4
1382.94	17697.8
1384.01	17702.5
1385.09	17703.3
1386.16	17695.2
1387.23	17685.9
1388.3	17674.6
1389.38	17665.4
1390.45	17657.5
1391.52	17651.8
1392.59	17649.1
1393.66	17647.2
1393.92	17645.6
1395	17650.2
1396.07	17657.2
1397.15	17667.1
1398.22	17662.9
1399.3	17655
1400.38	17642.9
1401.45	17625.7
1402.53	17604.4
1403.6	17596.1
1404.68	17587.2
1405.75	17594.9
1406.82	17594.9
1407.9	17595.8
1408.97	17592.6
1410.05	17580.8
1411.12	17567.3
1412.19	17549.1
1413.27	17531.5
1414.34	17516.7
1415.41	17504.1
1416.49	17502.8
1417.56	17501.7
1418.63	17492.8
1419.7	17473.6
1420.78	17454.5
1421.85	17438.2
1422.92	17424.4
1423.99	17415.6
1425.06	17409.9
1426.14	17407.3
1427.21	17407.8
1428.28	17411.8
1429.35	17418.3
1430.42	17423.3
1431.49	17421.2
1432.56	17407.8
1433.63	17395.7
1434.7	17386.2
1435.77	17379.2
1436.84	17376.2
1437.91	17374.5
1438.98	17375.5
1440.05	17378.4
1441.12	17382.5
1442.18	17373.5
1443.25	17360.2
1444.32	17342.9
1445.39	17322.5
1446.46	17297.4
1447.53	17278.2
1448.59	17260.1
1449.66	17287.1
1450.73	17318.6
1451.8	17331.8
1452.86	17330.3
1453.93	17310.4
1455	17297.5
1456.06	17296.6
1457.13	17301.5
1458.2	17304.3
1459.26	17303
1460.33	17299.5
1461.39	17292.7
1462.46	17284
1463.52	17273
1464.59	17260.7
1465.65	17245.2
1466.72	17228.4
1467.78	17212.2
1468.85	17200.1
1469.91	17208.7
1470.98	17222.5
1472.04	17237.9
1473.1	17252.9
1474.17	17262.3
1475.23	17266.1
1476.3	17266.2
1477.36	17263.2
1478.42	17255.9
1479.48	17245.2
1480.55	17231.1
1481.61	17216.7
1482.67	17210.2
1483.73	17207
1484.8	17210.6
1485.86	17213.8
1486.92	17204.1
1487.98	17179.8
1489.04	17141.1
1490.1	17115.9
1491.17	17115.2
1492.23	17133.6
1493.29	17189.3
1494.35	17171.9
1495.41	17173.8
1496.47	17171.3
1497.53	17167.7
1498.59	17161.7
1499.65	17156.1
1500.71	17143.9
1501.77	17109
1502.83	17067.4
1503.88	17027.5
1504.94	16993
1506	16968.2
1507.06	16958.9
1508.12	16984.8
1509.18	16991.7
1510.23	16993.1
1511.29	16993.5
1512.35	16994.3
1513.41	16989.6
1514.47	16978.8
1515.52	16961.8
1516.58	16935.6
1517.64	16911.6
1518.69	16901.7
1519.75	16896
1520.81	16893.9
1521.86	16894.9
1522.92	16900.2
1523.97	16901.6
1525.03	16879.2
1526.08	16842.3
1527.14	16819.1
1528.2	16812.8
1529.25	16811.6
1530.31	16818.7
1531.36	16810.6
1532.42	16800.4
1533.47	16789.3
1534.52	16777.1
1535.58	16764.1
1536.63	16750.2
1537.69	16738.6
1538.74	16733.6
1539.79	16736.3
1540.84	16744.9
1541.9	16763.3
1542.95	16782.9
1544	16797.3
1545.06	16804.3
1546.11	16804.1
1547.16	16761.5
1548.21	16726
1549.27	16693
1550.32	16677.8
1551.37	16665.6
1552.42	16672.6
1553.47	16687.4
1554.52	16700.3
1555.57	16711.2
1556.62	16717.5
1557.67	16720.4
1558.72	16724.1
1559.77	16725.8
1560.82	16729.7
1561.87	16726.5
1562.92	16718.1
1563.97	16710.3
1565.02	16702.2
1566.07	16694.7
1567.12	16687.3
1568.17	16680.6
1569.22	16674.7
1570.27	16669.6
1571.32	16665.9
1572.36	16663.7
1573.41	16685.3
1574.46	16699.5
1575.51	16708.4
1576.56	16710.7
1577.6	16707.2
1578.65	16698
1579.7	16683.7
1580.74	16663.8
1581.79	16639.7
1582.84	16634.3
1583.88	16638.1
1584.93	16650.4
1585.98	16658.7
1587.02	16663.8
1588.07	16667
1589.11	16662.2
1590.16	16639.1
1591.2	16606.8
1592.25	16574.2
1593.29	16538.8
1594.34	16504.1
1595.38	16490.8
1596.43	16492.4
1597.47	16509.9
1598.52	16554.6
1599.56	16573.9
1600.6	16594.7
1601.65	16489.2
1602.69	16468.4
1603.73	16467.9
1604.78	16468
1605.82	16463.5
1606.86	16456.4
1607.91	16446.7
1608.95	16434
1609.99	16418.9
1611.03	16400.1
1612.08	16378.8
1613.12	16355.1
1614.16	16331.7
1615.2	16308
1616.24	16297.1
1617.28	16287
1618.32	16280.6
1619.36	16272.5
1620.41	16262
1621.45	16249.7
1622.49	16234.3
1623.53	16220.6
1624.57	16206.6
1625.61	16192.7
1626.65	16181.3
1627.69	16167.7
1628.73	16154.6
1629.76	16141.5
1630.8	16128.9
1631.84	16117.2
1632.88	16107.2
1633.92	16104.3
1634.96	16107.5
1636	16108.4
1637.03	16114
1638.07	16111.5
1639.11	16094.4
1640.15	16074.6
1641.19	16046.1
1642.22	16028.1
1643.26	16017.9
1644.3	16013.6
1645.33	16015.8
1646.37	16017.2
1647.41	16012.9
1648.44	16005.9
1649.48	15996.6
1650.52	15985.2
1651.55	15971.7
1652.59	15959.3
1653.62	15949.2
1654.66	15952.6
1655.69	15952.3
1656.73	15946.8
1657.76	15939.8
1658.8	15932.9
1659.83	15925.6
1660.87	15917.8
1661.9	15909.5
1662.93	15900.8
1663.97	15892.9
1665	15885.8
1666.04	15879.3
1667.07	15873
1668.1	15866.7
1669.14	15860.9
1670.17	15853.1
1671.2	15844.6
1672.23	15835.4
1673.27	15826.3
1674.3	15816.6
1675.33	15809.6
1676.36	15809
1677.39	15813.9
1678.43	15824.6
1679.46	15826.1
1680.49	15821.9
1681.52	15811
1682.55	15797.9
1683.58	15781.4
1684.61	15758.7
1685.64	15737.4
1686.67	15725.2
1687.7	15731.6
1688.73	15740.3
1689.76	15748.6
1690.79	15749.1
1691.82	15738.2
1692.85	15723.9
1693.88	15710.3
1694.91	15695
1695.94	15679
1696.97	15660.1
1698	15652.2
1699.02	15664
1700.05	15663.6
1701.08	15654.5
1702.11	15643.6
1703.14	15637.3
1704.16	15629.5
1705.19	15624.7
1706.22	15621.2
1707.25	15613.4
1708.27	15601.8
1709.3	15588.5
1710.33	15573.6
1711.35	15557.8
1712.38	15541.4
1713.41	15525.6
1714.43	15511.3
1715.46	15497.9
1716.48	15484.8
1717.51	15474.3
1718.53	15463.1
1719.56	15451.3
1720.58	15435.2
1721.61	15405.9
1722.63	15385.4
1723.66	15371.8
1724.68	15378.7
1725.71	15378.2
1726.73	15394.9
1727.75	15405.9
1728.78	15408.5
1729.8	15396.6
1730.83	15376.2
1731.85	15346.5
1732.87	15314.6
1733.89	15298.3
1734.92	15288.4
1735.94	15274.4
1736.96	15277.3
1737.98	15284.5
1739.01	15286.2
1740.03	15273
1741.05	15256.7
1742.07	15242.4
1743.09	15227.1
1744.12	15211.3
1745.14	15193.2
1746.16	15174.5
1747.18	15155.2
1748.2	15135.2
1749.22	15114.3
1750.24	15092.7
1751.26	15070
1752.28	15058.3
1753.3	15067
1754.32	15073.1
1755.34	15072.5
1756.36	15073
1757.38	15066.9
1758.4	15059.1
1759.42	15048.8
1760.44	15036.5
1761.45	15022.2
1762.47	15015.5
1763.49	15027
1764.51	15024
1765.53	15011.1
1766.55	14995.9
1767.56	14994.4
1768.58	15000.3
1769.6	15006.8
1770.61	15010.4
1771.63	15013.9
1772.65	15009.5
1773.67	14993.1
1774.68	14971.7
1775.7	14947.9
1776.72	14930
1777.73	14927.1
1778.75	14929.5
1779.76	14927.1
1780.78	14902.4
1781.79	14875.6
1782.81	14836.1
1783.83	14816.4
1784.84	14816.1
1785.85	14831.9
1786.87	14849.9
1787.88	14858.8
1788.9	14841.5
1789.91	14779.6
1790.93	14765
1791.94	14751.8
1792.95	14739.1
1793.97	14727.5
1794.98	14718
1796	14710.8
1797.01	14709.6
1798.02	14688
1799.03	14658.9
1800.05	14663
1801.06	14669
1802.07	14670.4
1803.08	14665.9
1804.1	14655.8
1805.11	14648.4
1806.12	14643.9
1807.13	14637.9
1808.14	14629.5
1809.15	14611.5
1810.17	14593.3
1811.18	14570.9
1812.19	14557
1813.2	14547.1
1814.21	14537.3
1815.22	14536.2
1816.23	14541
1817.24	14545.2
1818.25	14547.3
1819.26	14536.5
1820.27	14520
1821.28	14495.7
1822.29	14461.9
1823.3	14430.8
1824.3	14404.1
1825.31	14397.6
1826.32	14392.3
1827.33	14390.2
1828.34	14393.9
1829.35	14397.3
1830.35	14394
1831.36	14389.3
1832.37	14377.6
1833.38	14362.9
1834.38	14344.5
1835.39	14322.7
1836.4	14297.2
1837.41	14268.4
1838.41	14236.4
1839.42	14205.6
1840.43	14184.5
1841.43	14173.9
1842.44	14182.4
1843.44	14181.1
1844.45	14177.5
1845.46	14168.1
1846.46	14159.5
1847.47	14145.2
1848.47	14128.8
1849.48	14110.8
1850.48	14094.2
1851.49	14093
1852.49	14094.7
1853.49	14093.4
1854.5	14092.7
1855.5	14083.1
1856.51	14074.8
1857.51	14055
1858.51	14037.9
1859.52	14025.7
1860.52	14016.6
1861.52	14008.6
1862.53	14001.4
1863.53	13995.3
1864.53	13989.9
1865.54	13986
1866.54	13982.6
1867.54	13979.8
1868.54	13976.8
1869.54	13968.9
1870.55	13962.8
1871.55	13953.4
1872.55	13935.3
1873.55	13897.5
1874.55	13870.9
1875.55	13836.6
1876.55	13811.9
1877.55	13824
1878.55	13819.4
1879.55	13814.7
1880.56	13809.5
1881.55	13804
1882.56	13776.1
1883.55	13756.5
1884.55	13746.1
1885.55	13735.4
1886.55	13738.1
1887.55	13745.5
1888.55	13748.1
1889.55	13749
1890.55	13746.1
1891.55	13737.7
1892.55	13726.4
1893.54	13713.5
1894.54	13703
1895.54	13695.9
1896.54	13697.1
1897.54	13678.3
1898.53	13657.1
1899.53	13634.5
1900.53	13611.1
1901.52	13589.3
1902.52	13598.3
1903.52	13613.6
1904.51	13583.7
1905.51	13555.6
1906.51	13526.6
1907.5	13506.5
1908.5	13507.1
1909.49	13498.2
1910.49	13489.5
1911.49	13480
1912.48	13468.4
1913.48	13453.5
1914.47	13438.5
1915.46	13423.3
1916.46	13416.1
1917.45	13416.1
1918.45	13411.8
1919.44	13406.1
1920.44	13397.5
1921.43	13383.4
1922.43	13365.9
1923.42	13345.3
1924.41	13325.4
1925.41	13302.5
1926.4	13292.5
1927.39	13287.1
1928.38	13287.4
1929.38	13282.3
1930.37	13284.8
1931.36	13286.6
1932.35	13280.9
1933.35	13268.2
1934.34	13242.8
1935.33	13194.5
1936.32	13174.5
1937.31	13164.4
1938.3	13173.4
1939.29	13179.9
1940.29	13185.7
1941.28	13190.4
1942.27	13193.9
1943.26	13191.8
1944.25	13144
1945.24	13125.7
1946.23	13112.5
1947.22	13095
1948.21	13078.2
1949.2	13058.8
1950.19	13038.7
1951.18	13021.2
1952.17	13005.9
1953.16	12995
1954.14	12989.4
1955.13	12984.6
1956.12	12979.9
1957.11	12974.8
1958.1	12969
1959.09	12961.8
1960.07	12954
1961.06	12945.4
1962.05	12935.8
1963.04	12925.3
1964.02	12913.7
1965.01	12901.3
1966	12888.2
1966.99	12874.5
1967.97	12862.6
1968.96	12850.9
1969.95	12839.7
1970.93	12824.1
1971.92	12806
1972.9	12790.8
1973.89	12786.7
1974.88	12778.3
1975.86	12775.9
1976.85	12774.2
1977.83	12764.8
1978.82	12749.4
1979.8	12729.1
1980.79	12705.5
1981.77	12684.5
1982.76	12671.9
1983.74	12678.6
1984.72	12670.7
1985.71	12662.1
1986.69	12653.5
1987.67	12645.2
1988.66	12637.7
1989.64	12630.2
1990.62	12623.3
1991.61	12617.1
1992.59	12611.6
1993.57	12639.1
1994.56	12622.5
1995.54	12592.9
1996.52	12553.7
1997.5	12528.3
1998.49	12513.8
1999.47	12509.3
2000.45	12512.1
2001.43	12508.3
2002.41	12505.2
2003.39	12505.2
2004.38	12501.6
2005.36	12497.8
2006.34	12491.2
2007.32	12478.3
2008.3	12453.1
2009.28	12422
2010.26	12403.2
2011.24	12392.2
2012.22	12394.3
2013.2	12378.5
2014.18	12358.6
2015.16	12339.4
2016.14	12320.1
2017.12	12301.7
2018.1	12295
2019.07	12291.7
2020.05	12291.4
2021.03	12288.9
2022.01	12284.3
2022.99	12278.7
2023.97	12273.5
2024.95	12268.2
2025.92	12262.6
2026.9	12256.1
2027.88	12249.2
2028.86	12235.4
2029.83	12212
2030.81	12186.8
2031.79	12159.3
2032.76	12130.9
2033.74	12105.6
2034.72	12104
2035.69	12107.4
2036.67	12113.4
2037.65	12114.2
2038.62	12100.6
2039.6	12084.4
2040.57	12059.3
2041.55	12046.9
2042.52	12033.9
2043.5	12024.4
2044.47	12017.7
2045.45	12013.8
2046.42	12012.6
2047.4	11987.2
2048.37	11952.4
2049.35	11923.1
2050.32	11912.4
2051.29	11911.8
2052.27	11905
2053.24	11890.7
2054.21	11877.1
2055.19	11865.8
2056.16	11856.1
2057.13	11848.3
2058.11	11842
2059.08	11837.7
2060.05	11834.2
2061.02	11827.7
2062	11818.8
2062.97	11805.9
2063.94	11788.3
2064.91	11767.6
2065.89	11751.3
2066.86	11736.5
2067.83	11722.9
2068.8	11709.8
2069.77	11697.7
2070.74	11686.3
2071.71	11676
2072.68	11665.9
2073.65	11655.9
2074.62	11646.6
2075.59	11640.5
2076.56	11635.6
2077.53	11629.8
2078.5	11622.3
2079.47	11612.9
2080.44	11601.7
2081.41	11588.9
2082.38	11575.2
2083.35	11561.1
2084.32	11547.6
2085.29	11535.2
2086.26	11521.3
2087.23	11504.3
2088.19	11487.5
2089.16	11470.9
2090.13	11456.3
2091.1	11444.3
2092.07	11435.9
2093.03	11430.4
2094	11428.1
2094.97	11428.6
2095.94	11433
2096.9	11429.9
2097.87	11411.6
2098.84	11388
2099.8	11352.2
2100.77	11328.2
2101.74	11313.9
2102.7	11310.9
2103.67	11302.9
2104.63	11295
2105.6	11288.8
2106.56	11281.3
2107.53	11273.6
2108.49	11264
2109.46	11252.7
2110.42	11235.5
2111.39	11180.2
2112.35	11208.3
2113.32	11225.9
2114.28	11233.5
2115.25	11218.2
2116.21	11200.3
2117.17	11174.5
2118.14	11161
2119.1	11147.8
2120.07	11136
2121.03	11134.3
2121.99	11132
2122.96	11127.1
2123.92	11121.2
2124.88	11114.7
2125.84	11107.5
2126.81	11084.4
2127.77	11073.9
2128.73	11064.1
2129.69	11054.8
2130.65	11049
2131.62	11027.6
2132.58	10984.8
2133.54	10964.7
2134.5	10952
2135.46	10945.5
2136.42	10945
2137.38	10942.8
2138.34	10935.8
2139.3	10925.8
2140.26	10914.5
2141.22	10899.9
2142.18	10884.2
2143.14	10867.7
2144.1	10852.1
2145.06	10837.8
2146.02	10824.3
2146.98	10815.3
2147.94	10815.4
2148.9	10838.2
2149.86	10841.8
2150.82	10833.2
2151.78	10811.6
2152.74	10788.8
2153.69	10764.3
2154.65	10743.8
2155.61	10729.3
2156.57	10718.6
2157.53	10711
2158.48	10706.1
2159.44	10704
2160.4	10704.7
2161.36	10692.2
2162.31	10672.6
2163.27	10651.6
2164.23	10633.7
2165.18	10617.9
2166.14	10604.4
2167.1	10592.7
2168.05	10582.4
2169.01	10570.9
2169.96	10558
2170.92	10541.8
2171.88	10520
2172.83	10495.3
2173.79	10468.8
2174.74	10440.2
2175.7	10411.6
2176.65	10393.9
2177.6	10376.8
2178.56	10361.4
2179.51	10347.4
2180.47	10335.3
2181.42	10324.5
2182.38	10312.1
2183.33	10300.6
2184.28	10295.3
2185.24	10290.2
2186.19	10290.8
2187.14	10283.2
2188.1	10274.3
2189.05	10261.3
2190	10247.4
2190.96	10232.8
2191.91	10218.6
2192.86	10206.8
2193.81	10197.5
2194.76	10188.9
2195.72	10181.3
2196.67	10174.8
2197.62	10169.2
2198.57	10163.3
2199.52	10158.2
2200.47	10154
2201.43	10150.4
2202.38	10147.6
2203.33	10144.6
2204.28	10137.4
2205.23	10126.7
2206.18	10110.7
2207.13	10095.2
2208.08	10079.6
2209.03	10061.6
2209.98	10052.8
2210.93	10040.8
2211.88	10029.3
2212.83	10016.9
2213.78	10001.7
2214.73	9982.23
2215.67	9965.8
2216.62	9954.33
2217.57	9935.89
2218.52	9933.41
2219.47	9938.98
2220.42	9941.6
2221.37	9940.99
2222.31	9937.5
2223.26	9929.74
2224.21	9920.47
2225.16	9910.84
2226.1	9899.48
2227.05	9885.89
2228	9870.55
2228.94	9855.03
2229.89	9839.81
2230.84	9825.91
2231.78	9812.62
2232.73	9802.14
2233.68	9801.74
2234.62	9804.12
2235.57	9807.59
2236.51	9811.52
2237.46	9815.86
2238.41	9819.55
2239.35	9815.36
2240.3	9808.86
2241.24	9799.94
2242.19	9788.76
2243.13	9775.29
2244.07	9759.49
2245.02	9751.48
2245.96	9747.56
2246.91	9744.96
2247.85	9743.95
2248.8	9740.41
2249.74	9739.89
2250.68	9739.28
2251.63	9738.35
2252.57	9736.13
2253.51	9732.67
2254.46	9726.06
2255.4	9716.88
2256.34	9697.6
2257.28	9675.97
2258.23	9664.91
2259.17	9666.96
2260.11	9668.95
2261.05	9666.5
2262	9661.27
2262.94	9657.4
2263.88	9653.66
2264.82	9651.08
2265.76	9648.94
2266.7	9646.25
2267.64	9642.04
2268.58	9626.66
2269.53	9621.95
2270.47	9616.94
2271.41	9616.45
2272.35	9614.51
2273.29	9612.67
2274.23	9611.02
2275.17	9609.12
2276.11	9601.32
2277.05	9593.13
2277.99	9584.84
2278.93	9574.35
2279.86	9570.02
2280.8	9573.91
2281.74	9578.47
2282.68	9580.36
2283.62	9577.37
2284.56	9572.38
2285.5	9566.22
2286.44	9559.53
2287.37	9552.21
2288.31	9544.73
2289.25	9538.43
2290.19	9532.86
2291.12	9528.36
2292.06	9524.96
2293	9522.27
2293.94	9517.92
2294.87	9512.77
2295.81	9506.91
2296.75	9499.86
2297.68	9490.86
2298.62	9482.65
2299.55	9476.16
2300.49	9471.58
2301.43	9469.98
2302.36	9468.79
2303.3	9466.1
2304.23	9461.76
2305.17	9455
2306.1	9445.94
2307.04	9432.13
2307.98	9419.91
2308.91	9410.73
2309.84	9402.58
2310.78	9394.33
2311.71	9386.38
2312.65	9378.52
2313.58	9369.1
2314.52	9356.14
2315.45	9341.11
2316.38	9325.24
2317.32	9310.95
2317.72	9304.91
2318.66	9295.41
2319.6	9289.38
2320.54	9293.85
2321.48	9305.04
2322.41	9306.77
2323.35	9316.99
2324.29	9309.02
2325.23	9295.2
2326.16	9279.79
2327.1	9274.88
2328.04	9271.42
2328.97	9271.15
2329.91	9260.54
2330.85	9239.89
2331.78	9208.91
2332.72	9184.6
2333.66	9161.74
2334.59	9155.43
2335.53	9160.99
2336.46	9170.88
2337.4	9173.6
2338.33	9184.47
2339.27	9186.47
2340.2	9178.72
2341.14	9163.27
2342.07	9130.86
2343.01	9112.9
2343.94	9107.38
2344.88	9104.7
2345.81	9104.17
2346.75	9099.32
2347.68	9095.05
2348.61	9091.63
2349.55	9087.1
2350.48	9082.39
2351.41	9076.87
2352.35	9069.75
2353.28	9059.92
2354.21	9043.05
2355.15	9028.19
2356.08	9013.35
2357.01	8999.24
2357.94	8988.13
2358.88	8976.88
2359.81	8968.98
2360.74	8964.14
2361.67	8961.17
2362.6	8959.33
2363.54	8957.93
2364.47	8956.9
2365.4	8954.93
2366.33	8953.67
2367.26	8952.7
2368.19	8951.87
2369.12	8951.25
2370.05	8950.52
2370.98	8945.66
2371.91	8940.63
2372.84	8922.9
2373.77	8907.33
2374.7	8891.13
2375.63	8883.26
2376.56	8879.1
2377.49	8872.52
2378.42	8870.25
2379.35	8865.06
2380.28	8857.66
2381.21	8848.22
2382.14	8827.93
2383.07	8817.46
2384	8804.4
2384.92	8803.74
2385.85	8801.58
2386.78	8806.75
2387.71	8806.75
2388.64	8809.67
2389.56	8812.25
2390.49	8813.52
2391.42	8812.44
2392.35	8807.78
2393.27	8800.74
2394.2	8792.18
2395.13	8779.36
2396.05	8764.37
2396.98	8748.39
2397.91	8732.51
2398.83	8728.15
2399.76	8725.81
2400.69	8728.19
2401.61	8726.57
2402.54	8724.73
2403.46	8722.5
2404.39	8718.96
2405.31	8714.72
2406.24	8709.76
2407.17	8704
2408.09	8697.38
2409.01	8689.81
2409.94	8681.33
2410.86	8671.76
2411.79	8661
2412.71	8648.89
2413.64	8635.25
2414.56	8619.01
2415.49	8604.17
2416.41	8613.8
2417.33	8612.14
2418.26	8610.66
2419.18	8608.2
2420.1	8600.57
2421.03	8589.08
2421.95	8573.04
2422.87	8554.02
2423.79	8532.65
2424.72	8510.85
2425.64	8501.41
2426.56	8492.69
2427.48	8487.55
2428.41	8484.45
2429.33	8482.53
2430.25	8480.02
2431.17	8472.13
2432.09	8464.13
2433.01	8454.48
2433.93	8443.89
2434.86	8432
2435.78	8419.26
2436.7	8405.87
2437.62	8391.44
2438.54	8376.61
2439.46	8362.88
2440.38	8354.33
2441.3	8350.77
2442.22	8347.75
2443.14	8342.69
2444.06	8334.6
2444.98	8325.45
2445.9	8314.72
2446.82	8302.74
2447.73	8291.22
2448.65	8283.4
2449.57	8284.17
2450.49	8281.73
2451.41	8280.22
2452.33	8279.6
2453.25	8278.48
2454.17	8274
2455.08	8259.14
2456	8240.1
2456.92	8224.31
2457.84	8210.96
2458.75	8195.16
2459.67	8191.18
2460.59	8194.89
2461.51	8206.12
2462.42	8224.35
2463.34	8232.46
2464.26	8214.32
2465.17	8183.34
2466.09	8139.7
2467	8122.62
2467.92	8101.66
2468.84	8085.64
2469.75	8076.43
2470.67	8071.31
2471.58	8073.04
2472.5	8082.15
2473.42	8092.42
2474.33	8100.73
2475.25	8097.56
2476.16	8092.76
2477.08	8084.06
2477.99	8071.49
2478.9	8055.63
2479.82	8036.58
2480.73	8022.21
2481.65	8022.26
2482.56	8026.13
2483.47	8030.84
2484.39	8034.25
2485.3	8030.12
2486.22	8020.53
2487.13	8009.74
2488.04	8000.25
2488.96	7991.96
2489.87	7984.31
2490.78	7977.68
2491.69	7971.74
2492.61	7965.86
2493.52	7960.8
2494.43	7956.92
2495.34	7955.56
2496.25	7959.23
2497.17	7962.21
2498.08	7961.73
2498.99	7959.27
2499.9	7955.75
2500.81	7948.37
2501.72	7940.45
2502.63	7934.21
2503.55	7928.78
2504.46	7925.23
2505.37	7922.01
2506.28	7919.91
2507.19	7918.59
2508.1	7917.72
2509.01	7917.32
2509.92	7904.54
2510.83	7893.44
2511.74	7881.46
2512.65	7874.17
2513.56	7873.87
2514.47	7885.72
2515.37	7892.96
2516.28	7894.58
2517.19	7898.4
2518.1	7889.49
2519.01	7877.93
2519.92	7864.45
2520.83	7848.51
2521.73	7825.33
2522.64	7802.29
2523.55	7784.15
2524.46	7774.18
2525.37	7768.06
2526.27	7763.66
2527.18	7774.55
2528.09	7786.68
2529	7791.13
2529.9	7788.3
2530.81	7780.08
2531.72	7771.19
2532.62	7752.9
2533.53	7741.06
2534.44	7726.07
2535.34	7724.01
2536.25	7729.34
2537.15	7728.12
2538.06	7725.19
2538.96	7715.73
2539.87	7707.65
2540.78	7692.46
2541.68	7682.03
2542.59	7679.34
2543.49	7680.66
2544.4	7677.66
2545.3	7671.33
2546.21	7658.25
2547.11	7647.31
2548.01	7637.38
2548.92	7628.83
2549.82	7620.19
2550.73	7622.04
2551.63	7617.41
2552.53	7609.99
2553.44	7601.21
2554.34	7590.29
2555.24	7574.5
2556.15	7572.27
2557.05	7577.04
2557.95	7566.31
2558.86	7544
2559.76	7532.87
2560.66	7517.8
2561.56	7507.89
2562.46	7504.94
2563.37	7510.19
2564.27	7491.99
2565.17	7481.59
2566.07	7473.39
2566.97	7468.05
2567.88	7460.1
2568.78	7454.88
2569.68	7450.14
2570.58	7444.95
2571.48	7438.63
2572.38	7430.9
2573.28	7421.47
2574.18	7410.59
2575.08	7397.99
2575.98	7383.88
2576.88	7368.02
2577.78	7351.15
2578.68	7335.67
2579.58	7321.41
2580.48	7321.8
2581.38	7320.18
2582.28	7321.87
2583.18	7323
2584.08	7320.75
2584.98	7319.27
2585.88	7316.49
2586.77	7310.08
2587.67	7302.4
2588.57	7291.87
2589.47	7280.12
2590.37	7268.65
2591.27	7257.86
2592.16	7251.06
2593.06	7244.33
2593.96	7238.41
2594.86	7233.39
2595.75	7228.45
2596.65	7223.33
2597.55	7217.91
2598.45	7212.02
2599.34	7205.5
2600.24	7198.34
2601.13	7190.73
2602.03	7182.79
2602.93	7174.8
2603.82	7167.44
2604.72	7160.76
2605.62	7155.34
2606.51	7151.21
2607.41	7148.67
2608.3	7147.75
2609.2	7143.74
2610.09	7135.35
2610.99	7122.8
2611.88	7106.73
2612.78	7086.3
2613.67	7059.17
2614.57	7050.27
2615.46	7049.9
2616.36	7053.33
2617.25	7057
2618.14	7056.18
2619.04	7056.23
2619.93	7056.36
2620.83	7056.9
2621.72	7057.16
2622.61	7058.6
2623.5	7057.25
2624.4	7043.04
2625.29	7024.69
2626.18	7007.93
2627.08	6997.05
2627.97	6983.59
2628.86	6972.9
2629.75	6966.5
2630.65	6963.67
2631.54	6966.15
2632.43	6964.05
2633.32	6953.83
2634.21	6937.6
2635.11	6920.46
2636	6894.32
2636.89	6873.52
2637.78	6853.66
2638.67	6849.89
2639.56	6858.77
2640.45	6862.83
2641.34	6866.24
2642.23	6861.4
2643.12	6848.31
2644.01	6832.26
2644.9	6816.74
2645.79	6797.67
2646.68	6782.87
2647.57	6781.2
2648.46	6784.25
2649.35	6784.88
2650.24	6783.23
2651.13	6780.06
2652.02	6775.23
2652.91	6768.94
2653.8	6761.69
2654.69	6752.89
2655.58	6743.53
2656.46	6733.49
2657.35	6726.49
2658.24	6724.49
2659.13	6724.58
2660.02	6720.28
2660.9	6701.76
2661.79	6685.93
2662.68	6669.07
2663.57	6645.13
2664.45	6640.74
2665.34	6644.55
2666.23	6655.57
2667.11	6675.09
2668	6684.47
2668.89	6678.31
2669.77	6653.52
2670.66	6640.38
2671.55	6626.81
2672.43	6614.53
2673.32	6604.06
2674.21	6596.55
2675.09	6590.68
2675.98	6585.31
2676.86	6579.18
2677.75	6573.26
2678.63	6573.4
2679.52	6573.27
2680.4	6572.89
2681.29	6570.62
2682.17	6560.37
2683.06	6540.83
2683.94	6530.76
2684.82	6521.44
2685.71	6514
2686.59	6507.95
2687.48	6502.91
2688.36	6498.68
2689.24	6494.71
2690.13	6491.22
2691.01	6486.81
2691.89	6481.23
2692.78	6473.84
2693.66	6464.46
2694.54	6452.92
2695.43	6439.32
2696.31	6424.15
2697.19	6406.56
2698.07	6385.26
2698.96	6359.01
2699.84	6376.6
2700.72	6390.42
2701.6	6381.42
2702.48	6368.41
2703.36	6362.33
2704.25	6355.84
2705.13	6350.32
2706.01	6346.29
2706.89	6343.86
2707.77	6343.4
2708.65	6344.32
2709.53	6346.45
2710.41	6347.93
2711.29	6340.46
2712.17	6327.42
2713.05	6313.88
2713.93	6299.15
2714.81	6283.11
2715.69	6271.85
2716.57	6262.01
2717.45	6254.11
2718.33	6246.83
2719.21	6243.6
2720.09	6242.3
2720.97	6238.41
2721.85	6232.72
2722.73	6222.58
2723.61	6212.54
2724.48	6210.51
2725.36	6214.51
2726.24	6211.58
2727.12	6203.05
2728	6191.48
2728.88	6182.81
2729.75	6173.39
2730.63	6173.29
2731.51	6179.08
2732.39	6182.11
2733.26	6182.71
2734.14	6180.24
2735.02	6174.16
2735.89	6164.05
2736.77	6156.02
2737.65	6153.6
2738.52	6151.82
2739.4	6149.89
2740.28	6148.31
2741.15	6142.78
2742.03	6129.74
2742.9	6121.12
2743.78	6112.56
2744.65	6105.15
2745.53	6099.49
2746.41	6094.7
2747.28	6091.28
2748.16	6088.8
2749.03	6087.86
2749.91	6087.02
2750.78	6084.36
2751.66	6080.42
2752.53	6073.86
2753.4	6065.93
2754.28	6056.4
2755.15	6045.13
2756.02	6031.89
2756.9	6016.9
2757.77	6008.75
2758.65	6010.84
2759.52	6009.71
2760.39	6008.87
2761.27	6006.57
2762.14	6002.69
2763.01	5998
2763.88	5992.38
2764.76	5985.83
2765.63	5978.3
2766.5	5969.72
2767.37	5960.42
2768.25	5950.66
2769.12	5941.69
2769.99	5933.34
2770.86	5927.42
2771.73	5924.99
2772.61	5923.12
2773.48	5922.02
2774.35	5921.92
2775.22	5921.59
2776.09	5920.33
2776.96	5915.58
2777.83	5914.37
2778.7	5905.72
2779.57	5888.94
2780.44	5862.25
2781.31	5842.69
2782.18	5840.06
2783.05	5841.51
2783.92	5842.06
2784.79	5835.01
2785.66	5827.11
2786.53	5820.49
2787.4	5816.88
2788.27	5814.36
2789.14	5812.25
2790.01	5810.94
2790.88	5809.97
2791.75	5808.59
2792.62	5805.81
2793.48	5802.27
2794.35	5795.33
2795.22	5786.43
2796.09	5775.63
2796.96	5764.25
2797.82	5752.96
2798.69	5744.45
2799.56	5739.95
2800.43	5737.29
2801.29	5740.55
2802.16	5737.7
2803.03	5732.52
2803.9	5727.4
2804.76	5720.37
2805.63	5712.77
2806.5	5704.04
2807.36	5695.51
2808.23	5688.6
2809.09	5685.5
2809.96	5684.43
2810.83	5684.91
2811.69	5687.23
2812.56	5687.02
2813.42	5679.1
2814.29	5670.36
2815.15	5660.03
2816.02	5648.73
2816.88	5635.41
2817.75	5628.26
2818.61	5629.19
2819.48	5628.97
2820.34	5625.06
2821.21	5612.48
2822.07	5598.57
2822.94	5587.49
2823.8	5576.8
2824.66	5571.12
2825.53	5568.98
2826.39	5569.24
2827.26	5572.44
2828.12	5574.46
2828.98	5577
2829.85	5575.4
2830.71	5568.19
2831.57	5560.14
2832.43	5552.62
2833.3	5549.5
2834.16	5546.26
2835.02	5544.85
2835.88	5545.29
2836.75	5547.52
2837.61	5550.09
2838.47	5552.29
2839.33	5548.2
2840.19	5543.23
2841.06	5536.03
2841.92	5526.05
2842.78	5513.18
2843.64	5498.85
2844.5	5485.13
2845.36	5476.27
2846.22	5468.79
2847.08	5462.46
2847.94	5458.42
2848.81	5455.89
2849.67	5455.04
2850.53	5454.71
2851.39	5448.4
2852.25	5441.69
2853.11	5434.39
2853.97	5427.39
2854.82	5420.01
2855.68	5411.79
2856.54	5403.45
2857.4	5394.79
2858.26	5385.92
2859.12	5377.1
2859.98	5368.45
2860.84	5361.49
2861.7	5366.44
2862.56	5372.36
2863.41	5376.79
2864.27	5376.47
2865.13	5368.66
2865.99	5360.96
2866.85	5354.8
2867.7	5348.89
2868.56	5343.29
2869.42	5338.96
2870.28	5335.13
2871.13	5332.3
2871.99	5330.1
2872.85	5328.51
2873.7	5326.62
2874.56	5320.56
2875.42	5312.13
2876.27	5304.32
2877.13	5288.8
2877.99	5263.21
2878.84	5249.69
2879.7	5254.3
2880.56	5256.34
2881.41	5259.6
2882.27	5265.36
2883.12	5269.98
2883.98	5266.43
2884.83	5262.79
2885.69	5258.55
2886.54	5253.27
2887.4	5247.22
2888.25	5239.78
2889.11	5231.26
2889.96	5221.73
2890.82	5211.14
2891.67	5199.51
2892.52	5186.79
2893.38	5176.38
2894.23	5168.07
2895.09	5169.17
2895.94	5172.04
2896.79	5176.84
2897.65	5177.81
2898.5	5181.8
2899.35	5184.72
2900.21	5183.55
2901.06	5175.6
2901.91	5147.08
2902.76	5126.38
2903.62	5115.09
2904.47	5112.44
2905.32	5108.98
2906.17	5104.52
2907.03	5099.89
2907.88	5095.8
2908.73	5090.89
2909.58	5085.92
2910.43	5080.65
2911.28	5075.55
2912.14	5073.51
2912.99	5074.37
2913.84	5078.4
2914.69	5078.27
2915.54	5076.47
2916.39	5072.83
2917.24	5067.13
2918.09	5058.85
2918.94	5048.78
2919.79	5037.12
2920.64	5024.69
2921.49	5014.04
2922.34	5010.44
2923.19	5006.3
2924.04	5003.71
2924.89	5004.1
2925.74	5003.86
2926.59	4995.6
2927.44	4982.23
2928.29	4962.8
2929.14	4918.57
2929.98	4925.17
2930.83	4955.32
2931.68	4960.35
2932.53	4953.8
2933.38	4941.32
2934.23	4934.32
2935.07	4933.34
2935.92	4936.93
2936.77	4932.81
2937.62	4927.31
2938.47	4919.75
2939.31	4910.25
2940.16	4898.27
2941.01	4884.72
2941.85	4880.32
2942.7	4877.78
2943.55	4877.4
2944.39	4878.47
2945.24	4879.91
2946.09	4881.92
2946.93	4873
2947.78	4857.54
2948.63	4816.01
2949.47	4805.61
2950.32	4817.52
2951.16	4831.75
2952.01	4833.9
2952.85	4800.45
2953.7	4794.64
2954.55	4805.91
2955.39	4814.76
2956.24	4819.83
2957.08	4822
2957.92	4821.5
2958.77	4817.4
2959.61	4810.29
2960.46	4799.66
2961.3	4785.99
2962.15	4769.04
2962.99	4750.08
2963.83	4739.82
2964.68	4739.6
2965.52	4742.65
2966.37	4747.48
2967.21	4756.65
2968.05	4764.77
2968.9	4767.12
2969.74	4766.51
2970.58	4759.93
2971.42	4750.41
2972.27	4739.62
2973.11	4724.5
2973.95	4713.12
2974.79	4705.64
2975.64	4702.14
2976.48	4698.59
2977.32	4695.96
2978.16	4692.77
2979	4689.64
2979.85	4685.75
2980.69	4680.41
2981.53	4673.47
2982.37	4663.33
2983.21	4652.96
2984.05	4644.34
2984.89	4637.98
2985.73	4644.31
2986.57	4646.72
2987.41	4648.94
2988.25	4649.16
2989.1	4646.28
2989.94	4642.2
2990.77	4636.48
2991.62	4629.49
2992.45	4622.74
2993.29	4616.26
2994.13	4614.51
2994.97	4613.5
2995.81	4614.45
2996.65	4616.65
2997.49	4631.53
2998.33	4612.82
2999.17	4573.64
