200.833	19652.9
202.102	19674.4
203.371	19725
204.639	19700.3
205.907	19693.4
207.175	19688.2
208.442	19690.8
209.71	19689.2
210.977	19678.4
212.244	19680.5
213.511	19688.2
214.777	19700.6
216.042	19733.4
217.309	19762.5
218.575	19793.8
219.84	19832.8
221.106	19874.9
222.371	19907.3
223.635	19937.8
224.9	19974.2
226.165	19998.4
227.429	20027.1
228.694	20065.5
229.956	20108
231.22	20154.3
232.484	20205
233.747	20262.9
235.011	20312.4
236.272	20360.8
237.535	20390.3
238.798	20404.6
240.06	20419.7
241.321	20448.1
242.583	20482
243.845	20517
245.105	20547.6
246.367	20578.5
247.628	20599.6
248.888	20626.2
250.149	20649.3
251.409	20635.4
252.67	20611.8
253.928	20581.4
255.189	20575.5
256.447	20579.2
257.707	20604.2
258.966	20663
260.224	20714.9
261.483	20755.1
262.742	20794.1
263.999	20787
265.257	20786.6
266.514	20793.2
267.772	20802.6
269.028	20815.5
270.286	20832.1
271.543	20848.7
272.799	20865.7
274.056	20883.4
275.311	20902.5
276.568	20922.4
277.823	20943.7
279.079	20966.6
280.333	20991.4
281.589	21022.8
282.843	21056.3
284.099	21088.7
285.352	21119.4
286.607	21148
287.86	21178.1
289.114	21185.8
290.368	21205.7
291.621	21248
292.875	21285.6
294.127	21317.9
295.38	21338.7
296.632	21352.4
297.884	21363.7
299.137	21372.2
300.388	21376.3
301.641	21380.3
302.891	21385.9
304.142	21392.9
305.394	21401.5
306.644	21411.7
307.894	21423.4
309.146	21436.9
310.395	21452
311.645	21468.6
312.895	21483.3
314.144	21492.3
315.393	21483.8
316.642	21476.2
317.892	21479.1
319.14	21481.9
320.388	21484.7
321.637	21490.8
322.885	21494
324.132	21514.1
325.38	21554.9
326.628	21598.2
327.875	21643.4
329.122	21662.7
330.368	21680.2
331.614	21698.8
332.862	21718.2
334.108	21738.3
335.353	21760.4
336.599	21783.7
337.844	21807.4
339.089	21832.4
340.335	21859.3
341.58	21889.6
342.824	21909
344.068	21916.5
345.312	21911.4
346.556	21904
347.8	21930.7
349.043	21949.6
350.286	21966.6
351.53	21979.8
352.774	21988.3
354.016	21990.8
355.259	21984.9
356.501	21975.2
357.743	21959.9
358.985	21940.1
360.227	21913.6
361.468	21907.4
362.709	21926.9
363.95	21980.1
365.191	22017.1
366.432	22041.7
367.672	22043.8
368.912	22048.3
370.152	22044.8
371.392	22035.5
372.632	22018.9
373.871	22004.1
375.11	22003.7
376.348	22015.3
377.587	22041
378.825	22074.9
380.064	22125.5
381.302	22164.2
382.54	22180.4
383.778	22180.3
385.016	22171
386.253	22160.6
387.489	22150.9
388.726	22140.1
389.963	22145.4
391.199	22167.5
392.436	22206.6
393.672	22236.7
394.907	22269.2
396.142	22317
397.378	22347.2
398.614	22357.1
399.849	22355
401.082	22363.2
402.317	22365.9
403.552	22360.9
404.786	22359.1
406.019	22363.4
407.253	22372.2
408.487	22382.1
409.721	22392.3
410.953	22403
412.186	22415.1
413.419	22427.3
414.651	22439.8
415.883	22452.5
417.116	22465.5
418.347	22478
419.579	22490.9
420.811	22502.3
422.041	22504.7
423.272	22499.4
424.504	22475.6
425.733	22455.4
426.964	22463.6
428.194	22471.8
429.424	22488.2
430.654	22505.2
431.883	22519.8
433.113	22527.7
434.341	22535.4
435.571	22542
436.799	22549.1
438.028	22556.9
439.257	22569.6
440.484	22579.3
441.713	22589.1
442.94	22597.5
444.168	22606
445.394	22603.3
446.622	22604.1
447.848	22608
449.076	22616.2
450.301	22640.3
451.528	22668.4
452.754	22678.1
453.979	22692
455.205	22700.8
456.43	22697.9
457.656	22682.1
458.88	22684.7
460.106	22690.3
461.33	22702.8
462.554	22710.6
463.779	22716.6
465.002	22719.7
466.225	22723
467.45	22726.1
468.672	22727.4
469.895	22731
471.119	22734.7
472.341	22743.2
473.563	22745.7
474.786	22744.4
476.008	22734.8
477.229	22708.5
478.452	22669.4
479.673	22619.8
480.894	22586.7
482.115	22564.7
483.337	22553.9
484.557	22554.9
485.777	22563.2
486.997	22573.3
488.218	22588.1
489.438	22592.6
490.657	22598
491.876	22603.9
493.096	22605.8
494.315	22595.5
495.533	22604.5
496.752	22607.2
497.97	22612.4
499.188	22621.5
500.407	22626.5
501.625	22616.9
502.842	22598.2
504.059	22583.6
505.276	22574.3
506.493	22559.8
507.71	22565.1
508.926	22591.3
510.142	22623.9
511.358	22644
512.575	22651.3
513.791	22649.6
515.006	22656.3
516.222	22656.8
517.437	22671.8
518.651	22688.3
519.866	22714
521.081	22750.2
522.295	22779.9
523.509	22796.6
524.723	22809
525.937	22817.6
527.15	22823.1
528.363	22822.7
529.576	22820.8
530.789	22815.4
532.002	22812.1
533.215	22811.6
534.426	22815.6
535.638	22825.3
536.85	22834.7
538.061	22845.4
539.273	22856
540.484	22865.1
541.695	22841.4
542.906	22818.6
544.117	22802.9
545.327	22789.8
546.537	22779.3
547.747	22774.6
548.957	22773.6
550.167	22776.1
551.377	22782.4
552.585	22791.3
553.794	22803.7
555.003	22818.3
556.212	22826.2
557.421	22821.6
558.628	22815.7
559.836	22812
561.044	22821.9
562.252	22837.9
563.458	22862.5
564.666	22893.7
565.873	22903.7
567.08	22900.8
568.286	22888.8
569.493	22872.7
570.699	22854
571.904	22836.4
573.111	22827.2
574.317	22834.9
575.521	22843.8
576.727	22847.5
577.932	22842.9
579.136	22839
580.341	22833.8
581.544	22826.5
582.749	22815
583.954	22804.6
585.156	22807.2
586.361	22825.7
587.563	22845
588.767	22863.7
589.97	22873.8
591.172	22881.8
592.375	22887.2
593.577	22890.5
594.78	22892.2
595.981	22893.8
597.183	22897.6
598.384	22904
599.586	22910.5
600.786	22913.3
601.988	22907.7
603.188	22894.6
604.389	22873.9
605.589	22845
606.79	22810.2
607.989	22780.4
609.188	22767.3
610.389	22775.2
611.587	22718.5
612.787	22695.3
613.986	22687.1
615.184	22697.3
616.383	22725.3
617.581	22736.8
618.78	22715.9
619.977	22701.3
621.174	22685.7
622.373	22667.7
623.57	22644.8
624.766	22626.1
625.964	22614.5
627.16	22608.1
628.356	22603.8
629.554	22587.2
630.749	22572.4
631.945	22557.7
633.14	22543.4
634.337	22526.4
635.532	22511.6
636.726	22499
637.921	22491.1
639.117	22486.9
640.311	22485.7
641.505	22487.5
642.699	22493
643.892	22501
645.087	22511.9
646.28	22524.8
647.473	22537.6
648.666	22546.5
649.859	22547.3
651.051	22538.5
652.245	22526.3
653.437	22520
654.629	22516.3
655.821	22515
657.012	22515.4
658.204	22515.2
659.395	22516.1
660.586	22515.8
661.777	22517.2
662.967	22522.3
664.158	22537.6
665.349	22558.8
666.539	22572.1
667.729	22583.5
668.919	22589.4
670.109	22592.5
671.298	22586.6
672.487	22579
673.676	22571.7
674.865	22569.1
676.053	22569.2
677.242	22563.7
678.43	22556.1
679.616	22548.1
680.804	22539.2
681.992	22531.2
683.179	22541.5
684.366	22547.2
685.554	22551.9
686.74	22556
687.927	22562.4
689.114	22569.1
690.3	22573.3
691.486	22569.5
692.671	22556.8
693.856	22524.7
695.042	22495
696.227	22451.9
697.413	22425.4
698.598	22427.7
699.781	22440.4
700.966	22443.3
702.15	22436.4
703.334	22419.3
704.518	22404.4
705.701	22369.4
706.885	22352.7
708.068	22333.5
709.252	22329.6
710.433	22328.5
711.616	22318.8
712.799	22294.7
713.98	22293.1
715.163	22292.9
716.345	22302.9
717.527	22315.1
718.707	22329.6
719.889	22339.3
721.071	22344.9
722.25	22345.9
723.432	22346
724.611	22343.3
725.792	22336.2
726.972	22329.9
728.151	22342.3
729.332	22356.8
730.512	22369.2
731.69	22369.6
732.87	22370.6
734.048	22359.3
735.227	22345.9
736.405	22336.8
737.584	22323.4
738.761	22319.6
739.94	22319.9
741.117	22325.5
742.295	22333.5
743.471	22343.2
744.649	22353.9
745.825	22365.3
747.003	22377.4
748.179	22390.2
749.356	22403.7
750.531	22417.3
751.708	22431.8
752.883	22438.9
754.059	22410.3
755.234	22388.2
756.409	22383.1
757.585	22378.6
758.759	22387.6
759.934	22397.9
761.108	22401.4
762.282	22395.5
763.456	22390.9
764.63	22369
765.803	22335.2
766.977	22325.4
768.15	22315.5
769.323	22309.4
770.496	22308.9
771.668	22320.8
772.841	22325
774.014	22300.7
775.185	22277
776.357	22244.6
777.528	22215.2
778.701	22189.6
779.872	22165.1
781.042	22151.6
782.213	22154.3
783.383	22153.7
784.555	22149.9
785.725	22141.8
786.895	22131.2
788.064	22118.9
789.234	22103.4
790.404	22085.7
791.573	22066
792.742	22045.4
793.911	22034.3
795.08	22031.4
796.248	22043.5
797.416	22052.8
798.584	22051.9
799.753	22045.2
800.921	22029.1
802.088	22012.2
803.256	22005.3
804.423	21998.6
805.59	21991.5
806.756	21984.2
807.923	21975
809.089	21966.5
810.256	21943.5
811.422	21928.6
812.587	21921.4
813.753	21922.5
814.918	21939.4
816.084	21980.9
817.249	22012.6
818.414	22048.3
819.578	22071.3
820.743	22088.1
821.907	22097
823.072	22099.3
824.236	22095.2
825.399	22086.5
826.562	22076.4
827.725	22062.9
828.889	22041.8
830.052	22021.1
831.215	22019.2
832.377	22031.5
833.54	22044.3
834.701	22062.3
835.863	22070.7
837.025	22075.7
838.187	22068
839.349	22058.6
840.51	22045.5
841.67	22031.4
842.831	22019.6
843.992	22010.5
845.153	22004.9
846.312	22001.8
847.473	22003.9
848.633	22005.4
849.793	22003.5
850.951	21997.8
852.111	21981.2
853.27	21961.2
854.428	21935.8
855.588	21905.8
856.747	21869.3
857.904	21831.4
859.063	21824.4
860.221	21823.3
861.378	21821.2
862.536	21814.9
863.694	21810.4
864.85	21803.8
866.008	21794.3
867.164	21782
868.321	21767.1
869.478	21750.1
870.633	21731.7
871.79	21713
872.945	21691.7
874.101	21670
875.256	21646.7
876.412	21623.5
877.566	21602.3
878.722	21584.6
879.876	21575
881.031	21567.6
882.185	21563.5
883.34	21560.9
884.493	21545.5
885.647	21531
886.8	21518.7
887.954	21509.1
889.107	21512.7
890.261	21520.7
891.413	21523.4
892.565	21530.9
893.718	21528.7
894.87	21520
896.023	21512.6
897.174	21496.3
898.326	21489.3
899.478	21489.2
900.629	21505
901.779	21515.2
902.931	21518.3
904.081	21515.5
905.231	21507.2
906.383	21506.3
907.532	21505.2
908.682	21503.9
909.831	21502.8
910.982	21502.1
912.131	21502
913.28	21502.4
914.429	21503.3
915.578	21504.7
916.727	21506.5
917.875	21509.2
919.023	21512.4
920.171	21515.8
921.32	21519.6
922.467	21513.6
923.614	21496.1
924.761	21490.6
925.908	21493.8
927.055	21503.5
928.203	21510.9
929.349	21514
930.496	21515.6
931.642	21515.8
932.787	21513.7
933.933	21509.1
935.079	21502
936.224	21492.2
937.369	21478.9
938.514	21459.5
939.659	21434.4
940.804	21410.7
941.948	21388.6
943.092	21379.6
944.236	21371.8
945.38	21369.3
946.524	21371.4
947.667	21373.1
948.811	21373.9
949.954	21363.2
951.097	21341.1
952.24	21317.9
953.383	21303.5
954.525	21287.6
955.667	21275.6
956.81	21265.1
957.952	21256.1
959.093	21248.5
960.235	21241.8
961.376	21235.1
962.516	21227.5
963.658	21220
964.798	21212.8
965.939	21206.4
967.08	21200.5
968.22	21196.6
969.359	21183.1
970.499	21158.9
971.639	21135.9
972.779	21114.2
973.918	21108.1
975.056	21119.3
976.195	21116.5
977.334	21114.5
978.473	21110.5
979.61	21110.8
980.749	21099.6
981.887	21105.5
983.024	21116.7
984.162	21132.6
985.3	21152.6
986.437	21177.9
987.573	21172
988.711	21160.6
989.848	21122.7
990.983	21083
992.12	21060.3
993.255	21064.3
994.392	21080.7
995.528	21094.3
996.662	21105.3
997.798	21113.7
998.933	21120.2
1000.07	21124.6
1001.2	21126.9
1002.34	21126.8
1003.47	21124.8
1004.61	21123
1005.74	21122.4
1006.87	21122
1008.01	21125.8
1009.14	21132.5
1010.27	21140.7
1011.41	21149.3
1012.54	21156.7
1013.67	21159.7
1014.81	21155.1
1015.94	21149
1017.07	21140
1018.2	21128.8
1019.33	21116.4
1020.47	21104.9
1021.6	21095.5
1022.73	21088.1
1023.86	21082.1
1024.99	21076.7
1026.12	21070
1027.25	21063.4
1028.38	21051.1
1029.51	21032.4
1030.64	21008.4
1031.77	20979.8
1032.9	20947.7
1034.03	20917.5
1035.16	20891.1
1036.29	20869.3
1037.42	20852.5
1038.55	20842.6
1039.67	20842.9
1040.8	20851
1041.93	20843.1
1043.06	20833.3
1044.19	20814
1045.31	20794.4
1046.44	20777.1
1047.57	20759.7
1048.69	20737
1049.82	20739.4
1050.95	20739.3
1052.08	20739.6
1053.2	20734.8
1054.33	20697.2
1055.45	20662.6
1056.58	20621.7
1057.7	20597.3
1058.83	20579.4
1059.95	20566.6
1061.08	20559.8
1062.2	20559.3
1063.33	20565.6
1064.45	20569.8
1065.58	20572.1
1066.7	20561.6
1067.83	20553.2
1068.95	20545.4
1070.07	20541.2
1071.2	20541.7
1072.32	20545.7
1073.44	20552
1074.56	20561.7
1075.69	20573.6
1076.81	20590.8
1077.93	20599.7
1079.05	20590.8
1080.17	20572.4
1081.3	20558.1
1082.42	20546.6
1083.54	20537.5
1084.66	20528.6
1085.78	20520.9
1086.9	20514.9
1088.02	20509
1089.14	20506.8
1090.26	20528.9
1091.38	20542.2
1092.5	20547
1093.62	20543
1094.74	20532.5
1095.86	20518.6
1096.98	20500.4
1098.1	20478.4
1099.22	20454.2
1100.34	20451
1101.45	20452.9
1102.57	20483.8
1103.69	20511.2
1104.81	20525.9
1105.93	20533.2
1107.04	20532.6
1108.16	20523.5
1109.28	20505.3
1110.4	20479.4
1111.51	20446.5
1112.63	20407.9
1113.75	20403.6
1114.86	20400.7
1115.98	20390.5
1117.09	20378.9
1118.21	20363
1119.32	20346.1
1120.44	20310
1121.55	20282.9
1122.67	20270.4
1123.78	20262.6
1124.9	20269.5
1126.01	20266.6
1127.13	20258.1
1128.24	20237.7
1129.35	20214.6
1130.47	20188.4
1131.58	20158.5
1132.7	20121.5
1133.81	20083.6
1134.92	20057.8
1136.03	20041.4
1137.15	20033.5
1138.26	20018.9
1139.37	20003.6
1140.48	19988.6
1141.59	19973.1
1142.71	19956.9
1143.82	19940
1144.93	19926.5
1146.04	19917
1147.15	19916.4
1148.26	19904.9
1149.37	19891.2
1150.48	19855.8
1151.59	19824.6
1152.7	19797.3
1153.81	19778.9
1154.92	19769.7
1156.03	19774.6
1157.14	19790.8
1158.25	19812.7
1159.36	19826.8
1160.47	19831.7
1161.58	19827.1
1162.68	19814.2
1163.79	19795
1164.9	19772.1
1166.01	19742.8
1167.12	19730.4
1168.22	19735.2
1169.33	19746.7
1170.44	19755.4
1171.55	19764.9
1172.65	19774
1173.76	19782.3
1174.87	19788.8
1175.97	19794.9
1177.08	19799.8
1178.18	19803
1179.29	19804.3
1180.4	19803
1181.5	19796.8
1182.61	19788.4
1183.71	19775.1
1184.82	19761.1
1185.92	19749.5
1187.02	19742.3
1188.13	19749.4
1189.23	19759.9
1190.34	19756.5
1191.44	19747.2
1192.54	19738.4
1193.65	19733.3
1194.75	19737.6
1195.85	19748.8
1196.96	19776.4
1198.06	19781.8
1199.16	19786.4
1200.26	19786.1
1201.37	19785.4
1202.47	19786.8
1203.57	19790.5
1204.67	19790.1
1205.77	19788.7
1206.87	19784.8
1207.97	19779.6
1209.08	19771.8
1210.18	19762.4
1211.28	19751.1
1212.38	19739.5
1213.48	19734.7
1214.58	19735.9
1215.68	19747.9
1216.78	19759.9
1217.88	19775.7
1218.98	19588.6
1220.07	19718.9
1221.17	19749.6
1222.27	19717.9
1223.37	19754.6
1224.47	19580.5
1225.57	19581.9
1226.66	19596.3
1227.76	19619.1
1228.86	19621.4
1229.96	19613.2
1231.06	19595.7
1232.15	19578.1
1233.25	19554.9
1234.35	19531.4
1235.44	19499.2
1236.54	19470.1
1237.63	19449.8
1238.73	19444.2
1239.83	19461.9
1240.92	19470
1242.02	19441.8
1243.11	19430.1
1244.21	19421.5
1245.3	19413.6
1246.4	19403.3
1247.49	19393.1
1248.59	19382.8
1249.68	19371.7
1250.78	19360.4
1251.87	19348.2
1252.96	19335.4
1254.06	19322.7
1255.15	19310.6
1256.24	19301.1
1257.34	19292.8
1258.43	19288.8
1259.52	19291.2
1260.62	19303.3
1261.71	19324
1262.8	19328.3
1263.89	19328.9
1264.98	19313.1
1266.08	19275.9
1267.17	19281.4
1268.26	19276.5
1269.35	19331.3
1270.44	19284.1
1271.53	19257.1
1272.62	19249.5
1273.71	19250
1274.8	19254.4
1275.89	19266.7
1276.98	19283.8
1278.07	19294.5
1279.16	19296.8
1280.25	19292.8
1281.34	19268.8
1282.43	19249.4
1283.52	19231.9
1284.61	19208.1
1285.69	19217.2
1286.78	19250.9
1287.87	19281.9
1288.96	19306.7
1290.05	19323.9
1291.13	19334.4
1292.22	19322.8
1293.31	19311.2
1294.4	19301.5
1295.48	19293.4
1296.57	19287
1297.66	19285.9
1298.74	19286.1
1299.83	19292.4
1300.92	19301
1302	19312.7
1303.09	19320.5
1304.17	19305.4
1305.26	19278.6
1306.34	19252.1
1307.43	19240
1308.51	19264.9
1309.6	19268.8
1310.68	19268.6
1311.76	19266.1
1312.85	19256.2
1313.93	19249.3
1315.02	19244
1316.1	19237.5
1317.18	19230.5
1318.27	19221.1
1319.35	19210.1
1320.43	19197
1321.52	19180
1322.6	19183.5
1323.68	19197.6
1324.76	19218.8
1325.85	19236.5
1326.93	19195
1328.01	19156.7
1329.09	19119.7
1330.17	19095.5
1331.25	19070.1
1332.33	19062.3
1333.41	19049.4
1334.49	19047
1335.58	19044.5
1336.65	19036.7
1337.74	19024.7
1338.82	19010.9
1339.89	18994
1340.97	18975.5
1342.05	18957.6
1343.13	18948.3
1344.21	18944.9
1345.29	18948.5
1346.37	18952.4
1347.45	18958.1
1348.53	18956.1
1349.6	18953.2
1350.68	18948.4
1351.76	18942.2
1352.84	18933.4
1353.92	18923.6
1354.99	18916.8
1356.07	18918.6
1357.15	18923.2
1358.22	18928.1
1359.3	18931.8
1360.38	18934.5
1361.45	18937.4
1362.53	18939.1
1363.61	18940
1364.68	18942.8
1365.76	18948.2
1366.83	18955.3
1367.91	18949.7
1368.98	18940.1
1370.06	18935.3
1371.13	18931.1
1372.21	18925.9
1373.28	18922.4
1374.35	18918.8
1375.43	18901.5
1376.5	18881.7
1377.58	18860.8
1378.65	18839.5
1379.72	18832.7
1380.8	18842.5
1381.87	18858.1
1382.94	18878.4
1384.01	18887.4
1385.09	18890
1386.16	18888.5
1387.23	18883.3
1388.3	18875.7
1389.38	18866
1390.45	18858.6
1391.52	18847
1392.59	18823.9
1393.66	18795.6
1393.92	18787.5
1395	18758.4
1396.07	18731.6
1397.15	18722.9
1398.22	18730.6
1399.3	18754.7
1400.38	18768.4
1401.45	18779.7
1402.53	18786.5
1403.6	18788.7
1404.68	18786.2
1405.75	18778.8
1406.82	18766.9
1407.9	18750.1
1408.97	18728.6
1410.05	18700.4
1411.12	18677
1412.19	18672.8
1413.27	18671.9
1414.34	18673.8
1415.41	18672.5
1416.49	18663.8
1417.56	18644.4
1418.63	18629.9
1419.7	18612.1
1420.78	18597.9
1421.85	18595.9
1422.92	18599.2
1423.99	18608.4
1425.06	18615.5
1426.14	18615.5
1427.21	18612.1
1428.28	18604.8
1429.35	18594.3
1430.42	18577.5
1431.49	18557.3
1432.56	18533.7
1433.63	18510.2
1434.7	18497
1435.77	18497.1
1436.84	18499.3
1437.91	18509.1
1438.98	18522
1440.05	18532.3
1441.12	18537.1
1442.18	18537.7
1443.25	18536.9
1444.32	18530.8
1445.39	18519.5
1446.46	18503.8
1447.53	18480.6
1448.59	18452.3
1449.66	18429.1
1450.73	18405.7
1451.8	18399.7
1452.86	18408.5
1453.93	18417.7
1455	18428
1456.06	18439.3
1457.13	18438
1458.2	18422.9
1459.26	18429.8
1460.33	18436.3
1461.39	18448.9
1462.46	18466.7
1463.52	18444.2
1464.59	18415.1
1465.65	18374.5
1466.72	18358.5
1467.78	18354.1
1468.85	18357.4
1469.91	18363.5
1470.98	18371
1472.04	18379.2
1473.1	18383.9
1474.17	18389.7
1475.23	18395.3
1476.3	18404.4
1477.36	18405
1478.42	18384.7
1479.48	18352
1480.55	18319.9
1481.61	18292.4
1482.67	18320.2
1483.73	18352.8
1484.8	18341.4
1485.86	18333.7
1486.92	18332.1
1487.98	18326
1489.04	18315.2
1490.1	18300.9
1491.17	18284.8
1492.23	18274
1493.29	18265.4
1494.35	18258.3
1495.41	18252.2
1496.47	18247.3
1497.53	18243.7
1498.59	18241.2
1499.65	18239.6
1500.71	18230.4
1501.77	18216.5
1502.83	18201.8
1503.88	18173
1504.94	18151.4
1506	18135.2
1507.06	18127.2
1508.12	18128.6
1509.18	18136.8
1510.23	18138.2
1511.29	18119.5
1512.35	18108.7
1513.41	18086.2
1514.47	18064.2
1515.52	18046.4
1516.58	18030.3
1517.64	18017.5
1518.69	18009.4
1519.75	18003
1520.81	17999.1
1521.86	17997.2
1522.92	17996.6
1523.97	17994.1
1525.03	17982.5
1526.08	17975.2
1527.14	17971.1
1528.2	17966
1529.25	17961.9
1530.31	17957.2
1531.36	17953.6
1532.42	17949.7
1533.47	17944.3
1534.52	17935.2
1535.58	17873.3
1536.63	17832.5
1537.69	17813.2
1538.74	17818.7
1539.79	17872.8
1540.84	17901
1541.9	17868.6
1542.95	17858.1
1544	17840.8
1545.06	17814.6
1546.11	17797.1
1547.16	17789
1548.21	17788.7
1549.27	17795
1550.32	17806.1
1551.37	17790.7
1552.42	17784.7
1553.47	17800
1554.52	17817.6
1555.57	17833.9
1556.62	17837.3
1557.67	17838.1
1558.72	17837.7
1559.77	17835.7
1560.82	17832.3
1561.87	17827.5
1562.92	17834.9
1563.97	17836.3
1565.02	17827.6
1566.07	17786.3
1567.12	17752.7
1568.17	17722.3
1569.22	17712.5
1570.27	17715.8
1571.32	17732.5
1572.36	17757.4
1573.41	17787
1574.46	17797.2
1575.51	17787.7
1576.56	17763
1577.6	17742
1578.65	17729.2
1579.7	17734.1
1580.74	17747.7
1581.79	17751.1
1582.84	17753.6
1583.88	17753.8
1584.93	17751.8
1585.98	17747.2
1587.02	17740.2
1588.07	17730.5
1589.11	17718.4
1590.16	17702.3
1591.2	17677.4
1592.25	17632.5
1593.29	17598.9
1594.34	17578.4
1595.38	17566
1596.43	17597.7
1597.47	17607
1598.52	17612.6
1599.56	17606.8
1600.6	17555.9
1601.65	17534
1602.69	17507.8
1603.73	17496.9
1604.78	17499.4
1605.82	17497.5
1606.86	17498.3
1607.91	17496.6
1608.95	17482.1
1609.99	17463.3
1611.03	17441.4
1612.08	17417.1
1613.12	17390.7
1614.16	17392.6
1615.2	17398.3
1616.24	17396.9
1617.28	17388.9
1618.32	17374.7
1619.36	17353.5
1620.41	17326
1621.45	17293.2
1622.49	17254.9
1623.53	17223.7
1624.57	17217
1625.61	17205.5
1626.65	17195.1
1627.69	17187.2
1628.73	17180.1
1629.76	17174.1
1630.8	17171.3
1631.84	17170
1632.88	17170
1633.92	17170.7
1634.96	17165.8
1636	17152.8
1637.03	17116.8
1638.07	17078.5
1639.11	17053.7
1640.15	17030.6
1641.19	17017.9
1642.22	17012.8
1643.26	17014
1644.3	17019.8
1645.33	17029.6
1646.37	17039.4
1647.41	17038.5
1648.44	17050.1
1649.48	17037.3
1650.52	17022.3
1651.55	16979
1652.59	16923.4
1653.62	16911.3
1654.66	16912
1655.69	16968.3
1656.73	16992.6
1657.76	16984.4
1658.8	16961
1659.83	16950.5
1660.87	16944.8
1661.9	16941.1
1662.93	16933.8
1663.97	16924.7
1665	16914
1666.04	16901.4
1667.07	16888.9
1668.1	16877.7
1669.14	16869.5
1670.17	16864.6
1671.2	16860.4
1672.23	16851.6
1673.27	16843.4
1674.3	16821.6
1675.33	16817.8
1676.36	16813.4
1677.39	16816.8
1678.43	16827
1679.46	16845.2
1680.49	16852
1681.52	16849.4
1682.55	16834.1
1683.58	16825.3
1684.61	16810.8
1685.64	16792.3
1686.67	16767.9
1687.7	16750.5
1688.73	16736.4
1689.76	16736.4
1690.79	16724
1691.82	16701.3
1692.85	16630.5
1693.88	16713.9
1694.91	16698.6
1695.94	16676.6
1696.97	16660.8
1698	16661.6
1699.02	16665.2
1700.05	16671.6
1701.08	16670
1702.11	16663.7
1703.14	16651.6
1704.16	16634.9
1705.19	16620.8
1706.22	16595.4
1707.25	16586.2
1708.27	16594.4
1709.3	16604.8
1710.33	16605.6
1711.35	16560.7
1712.38	16519.7
1713.41	16483.2
1714.43	16461.4
1715.46	16443.6
1716.48	16432
1717.51	16426.9
1718.53	16440
1719.56	16444.5
1720.58	16427.6
1721.61	16410.8
1722.63	16390.5
1723.66	16357.2
1724.68	16326.5
1725.71	16309.6
1726.73	16303.6
1727.75	16306.2
1728.78	16307
1729.8	16304
1730.83	16296.2
1731.85	16279.6
1732.87	16259.1
1733.89	16238.1
1734.92	16227.9
1735.94	16229
1736.96	16238.9
1737.98	16234.5
1739.01	16236.3
1740.03	16222.9
1741.05	16212.2
1742.07	16200.2
1743.09	16189.3
1744.12	16198.3
1745.14	16166.8
1746.16	16136.6
1747.18	16102.1
1748.2	16076.1
1749.22	16070
1750.24	16064.8
1751.26	16058.1
1752.28	16050.6
1753.3	16043.9
1754.32	16039.7
1755.34	16039.4
1756.36	16039.8
1757.38	16040.1
1758.4	16033
1759.42	16016.6
1760.44	16001.2
1761.45	15988.5
1762.47	15974.6
1763.49	15970.2
1764.51	15976.5
1765.53	15991.7
1766.55	15995.1
1767.56	15991.8
1768.58	15917
1769.6	15899.7
1770.61	15904.5
1771.63	15907.2
1772.65	15905.4
1773.67	15889.7
1774.68	15873.2
1775.7	15859.5
1776.72	15848.6
1777.73	15841
1778.75	15837.4
1779.76	15837.1
1780.78	15840.1
1781.79	15846
1782.81	15848.2
1783.83	15831.3
1784.84	15814.8
1785.85	15801.9
1786.87	15791
1787.88	15780.3
1788.9	15769.8
1789.91	15759.5
1790.93	15749.5
1791.94	15738.9
1792.95	15728.2
1793.97	15716.6
1794.98	15706.2
1796	15703.3
1797.01	15704.1
1798.02	15700.6
1799.03	15691.9
1800.05	15682.8
1801.06	15666.6
1802.07	15646.4
1803.08	15622.1
1804.1	15594.8
1805.11	15566.1
1806.12	15536.9
1807.13	15520.4
1808.14	15500.3
1809.15	15484.6
1810.17	15475.5
1811.18	15472.4
1812.19	15484.8
1813.2	15478.6
1814.21	15469.5
1815.22	15450.9
1816.23	15420.2
1817.24	15390.6
1818.25	15364.5
1819.26	15357.1
1820.27	15361.6
1821.28	15370.1
1822.29	15384.4
1823.3	15385.5
1824.3	15380.5
1825.31	15369.1
1826.32	15351.2
1827.33	15316.9
1828.34	15280.2
1829.35	15242.3
1830.35	15211
1831.36	15187.9
1832.37	15172.6
1833.38	15164.8
1834.38	15163
1835.39	15164.3
1836.4	15167
1837.41	15165.8
1838.41	15158.7
1839.42	15151.3
1840.43	15140.8
1841.43	15128.4
1842.44	15113.9
1843.44	15098.3
1844.45	15086.5
1845.46	15078.8
1846.46	15076
1847.47	15068
1848.47	15058.6
1849.48	15047.3
1850.48	15035
1851.49	15022
1852.49	15008.6
1853.49	14993.8
1854.5	14977.7
1855.5	14961.6
1856.51	14946.3
1857.51	14932.6
1858.51	14920.6
1859.52	14912.5
1860.52	14905.4
1861.52	14900.3
1862.53	14897.2
1863.53	14896
1864.53	14896.7
1865.54	14897.1
1866.54	14899.6
1867.54	14885.7
1868.54	14872.6
1869.54	14845.9
1870.55	14820.3
1871.55	14792.6
1872.55	14766.2
1873.55	14742.9
1874.55	14725.7
1875.55	14720.6
1876.55	14720.3
1877.55	14723
1878.55	14728.8
1879.55	14724.1
1880.56	14716.9
1881.55	14705.3
1882.56	14693
1883.55	14677.1
1884.55	14659.9
1885.55	14641.6
1886.55	14625.4
1887.55	14610.6
1888.55	14602.8
1889.55	14602.9
1890.55	14604.8
1891.55	14611.2
1892.55	14612.4
1893.54	14610.2
1894.54	14591.5
1895.54	14563.5
1896.54	14552
1897.54	14532.7
1898.53	14534.2
1899.53	14544.3
1900.53	14548.4
1901.52	14539.1
1902.52	14521.9
1903.52	14496.5
1904.51	14473.1
1905.51	14456.3
1906.51	14442.7
1907.5	14432.8
1908.5	14427.2
1909.49	14428.3
1910.49	14421.4
1911.49	14399.8
1912.48	14374.9
1913.48	14353.8
1914.47	14332.3
1915.46	14312.7
1916.46	14287.2
1917.45	14274.5
1918.45	14265.6
1919.44	14256.8
1920.44	14246.9
1921.43	14234.6
1922.43	14223.1
1923.42	14211.5
1924.41	14196.9
1925.41	14178
1926.4	14158.1
1927.39	14141.1
1928.38	14128.6
1929.38	14119
1930.37	14113
1931.36	14109.3
1932.35	14108.5
1933.35	14111.1
1934.34	14115.1
1935.33	14101.8
1936.32	14082.1
1937.31	14058.4
1938.3	14036.2
1939.29	14016.4
1940.29	13998.8
1941.28	13986.4
1942.27	13975.5
1943.26	13969.5
1944.25	13964.9
1945.24	13969.3
1946.23	13980.8
1947.22	13986.3
1948.21	13982.2
1949.2	13935.9
1950.19	13877.4
1951.18	13823.4
1952.17	13772.9
1953.16	13774.4
1954.14	13823.4
1955.13	13897
1956.12	13858.6
1957.11	13827.3
1958.1	13764.5
1959.09	13781.3
1960.07	13762.2
1961.06	13746.1
1962.05	13733
1963.04	13719.9
1964.02	13720.1
1965.01	13718.3
1966	13719.6
1966.99	13712.3
1967.97	13699.7
1968.96	13686.8
1969.95	13670.5
1970.93	13651.5
1971.92	13633
1972.9	13609.6
1973.89	13598.1
1974.88	13591.9
1975.86	13592.8
1976.85	13585.3
1977.83	13577.6
1978.82	13569.8
1979.8	13561.3
1980.79	13551.3
1981.77	13542.2
1982.76	13532.7
1983.74	13523.8
1984.72	13514.3
1985.71	13501.3
1986.69	13478.4
1987.67	13452
1988.66	13434.5
1989.64	13418.6
1990.62	13409.4
1991.61	13399.7
1992.59	13387.1
1993.57	13374.9
1994.56	13362.7
1995.54	13350.4
1996.52	13337.7
1997.5	13324.9
1998.49	13311.4
1999.47	13298.4
2000.45	13291.1
2001.43	13288.3
2002.41	13291
2003.39	13296
2004.38	13292.1
2005.36	13284.2
2006.34	13270.4
2007.32	13250.3
2008.3	13223.1
2009.28	13196.4
2010.26	13170
2011.24	13148.3
2012.22	13133.4
2013.2	13122.7
2014.18	13116.3
2015.16	13114.7
2016.14	13119
2017.12	13128.1
2018.1	13142.6
2019.07	13159.7
2020.05	13133.7
2021.03	13115.9
2022.01	13099.5
2022.99	13089.5
2023.97	13075.1
2024.95	13052.1
2025.92	13028.5
2026.9	13004.5
2027.88	12980.3
2028.86	12961.6
2029.83	12942.7
2030.81	12929.5
2031.79	12920.1
2032.76	12919.6
2033.74	12911.8
2034.72	12899.3
2035.69	12885.7
2036.67	12871
2037.65	12853.4
2038.62	12834.7
2039.6	12814.4
2040.57	12795.6
2041.55	12804.5
2042.52	12813.4
2043.5	12805.5
2044.47	12793.6
2045.45	12772.4
2046.42	12749.7
2047.4	12731.8
2048.37	12712.1
2049.35	12686.7
2050.32	12671.7
2051.29	12667.6
2052.27	12664.7
2053.24	12661.6
2054.21	12657.7
2055.19	12651.6
2056.16	12643.8
2057.13	12634.5
2058.11	12623.9
2059.08	12611.3
2060.05	12596.8
2061.02	12581.4
2062	12565.7
2062.97	12552.5
2063.94	12539.7
2064.91	12529.4
2065.89	12518.3
2066.86	12510.6
2067.83	12483.7
2068.8	12459.4
2069.77	12445.9
2070.74	12442.7
2071.71	12442
2072.68	12440.6
2073.65	12436
2074.62	12425.5
2075.59	12405.8
2076.56	12384.9
2077.53	12364.8
2078.5	12346
2079.47	12330.3
2080.44	12315.9
2081.41	12311.4
2082.38	12306.6
2083.35	12303
2084.32	12294.7
2085.29	12284.9
2086.26	12272.3
2087.23	12257.5
2088.19	12239.8
2089.16	12220.2
2090.13	12199.1
2091.1	12179.2
2092.07	12170.4
2093.03	12172.9
2094	12170.8
2094.97	12166.4
2095.94	12150.9
2096.9	12137
2097.87	12123.3
2098.84	12109.8
2099.8	12096.4
2100.77	12082
2101.74	12065.4
2102.7	12040.9
2103.67	12018
2104.63	12001
2105.6	11985.2
2106.56	11978.5
2107.53	11973.2
2108.49	11981.8
2109.46	11981.8
2110.42	11973.2
2111.39	11960.5
2112.35	11939.8
2113.32	11916.3
2114.28	11887.2
2115.25	11859.3
2116.21	11840.3
2117.17	11827.2
2118.14	11826.9
2119.1	11831
2120.07	11835.5
2121.03	11843
2121.99	11836.6
2122.96	11831.6
2123.92	11811.9
2124.88	11802.2
2125.84	11788
2126.81	11789.6
2127.77	11783.7
2128.73	11784.5
2129.69	11763.5
2130.65	11732.3
2131.62	11703.8
2132.58	11680.2
2133.54	11660.2
2134.5	11642.9
2135.46	11629.9
2136.42	11636
2137.38	11637.4
2138.34	11636.7
2139.3	11629.1
2140.26	11621
2141.22	11604.9
2142.18	11586.5
2143.14	11563.9
2144.1	11538.5
2145.06	11511.7
2146.02	11486.2
2146.98	11482.4
2147.94	11476.2
2148.9	11488.4
2149.86	11484
2150.82	11460.1
2151.78	11450.2
2152.74	11442.9
2153.69	11439.3
2154.65	11440.1
2155.61	11437.1
2156.57	11425.6
2157.53	11402
2158.48	11382.2
2159.44	11362.7
2160.4	11345.3
2161.36	11331.2
2162.31	11319.3
2163.27	11309.4
2164.23	11302.1
2165.18	11296.8
2166.14	11293.8
2167.1	11290.6
2168.05	11278.3
2169.01	11249.4
2169.96	11215
2170.92	11186.6
2171.88	11163.5
2172.83	11135.6
2173.79	11116.2
2174.74	11106.3
2175.7	11097.8
2176.65	11089.5
2177.6	11076.9
2178.56	11052.6
2179.51	11023.6
2180.47	11010.7
2181.42	11009.9
2182.38	10992.9
2183.33	10972.4
2184.28	10954.8
2185.24	10937.8
2186.19	10925.7
2187.14	10913.9
2188.1	10903.7
2189.05	10894.2
2190	10885.3
2190.96	10874.1
2191.91	10855.1
2192.86	10842.7
2193.81	10834.1
2194.76	10829.4
2195.72	10822.5
2196.67	10815.2
2197.62	10807.3
2198.57	10798.4
2199.52	10788.4
2200.47	10777.3
2201.43	10764.4
2202.38	10749
2203.33	10735.2
2204.28	10721.6
2205.23	10711.7
2206.18	10708
2207.13	10699.6
2208.08	10688
2209.03	10675.3
2209.98	10662.4
2210.93	10650
2211.88	10636.7
2212.83	10631
2213.78	10641.9
2214.73	10631.6
2215.67	10612.3
2216.62	10588.2
2217.57	10570.6
2218.52	10563
2219.47	10564.8
2220.42	10576.3
2221.37	10559.2
2222.31	10548.9
2223.26	10540.7
2224.21	10534.5
2225.16	10528.5
2226.1	10522.6
2227.05	10518.2
2228	10513.8
2228.94	10508.6
2229.89	10497.1
2230.84	10470.6
2231.78	10452.4
2232.73	10444.5
2233.68	10443.6
2234.62	10450.7
2235.57	10455.6
2236.51	10453.3
2237.46	10447.7
2238.41	10433.8
2239.35	10418.5
2240.3	10399.8
2241.24	10378
2242.19	10355.4
2243.13	10343.2
2244.07	10346.7
2245.02	10350.9
2245.96	10357.9
2246.91	10359.3
2247.85	10360.2
2248.8	10362.1
2249.74	10366.6
2250.68	10372.7
2251.63	10378.9
2252.57	10374.4
2253.51	10368.2
2254.46	10352.8
2255.4	10334.9
2256.34	10316.9
2257.28	10309.3
2258.23	10308.6
2259.17	10305
2260.11	10299.8
2261.05	10293.7
2262	10282
2262.94	10276.5
2263.88	10270.7
2264.82	10265.2
2265.76	10260.5
2266.7	10254.8
2267.64	10255.2
2268.58	10254.4
2269.53	10252.5
2270.47	10248.5
2271.41	10232.9
2272.35	10226
2273.29	10219.9
2274.23	10216.4
2275.17	10217.5
2276.11	10215.5
2277.05	10212.1
2277.99	10209.3
2278.93	10205.3
2279.86	10200.5
2280.8	10184.8
2281.74	10175.1
2282.68	10179.1
2283.62	10182.5
2284.56	10185.1
2285.5	10184.5
2286.44	10182.3
2287.37	10175.2
2288.31	10166.9
2289.25	10156.8
2290.19	10145.8
2291.12	10136.7
2292.06	10129.5
2293	10124.3
2293.94	10120.3
2294.87	10113.3
2295.81	10107.8
2296.75	10104.5
2297.68	10102.4
2298.62	10100
2299.55	10077.9
2300.49	10050.8
2301.43	10044.9
2302.36	10044.7
2303.3	10039.5
2304.23	10030.7
2305.17	10022.4
2306.1	10016.4
2307.04	10014.7
2307.98	10015.8
2308.91	10015.5
2309.84	10014.4
2310.78	10011
2311.71	9999.88
2312.65	9982.93
2313.58	9964.31
2314.52	9949.19
2315.45	9940.79
2316.38	9938.54
2317.32	9938.63
2317.72	9939.28
2318.66	9942.76
2319.6	9944.68
2320.54	9942.72
2321.48	9924.21
2322.41	9906.77
2323.35	9890.85
2324.29	9875.51
2325.23	9861.53
2326.16	9849.5
2327.1	9840.15
2328.04	9832.92
2328.97	9827.26
2329.91	9819.34
2330.85	9804.07
2331.78	9787.07
2332.72	9769.88
2333.66	9750.55
2334.59	9738.69
2335.53	9731.06
2336.46	9735.69
2337.4	9739.4
2338.33	9741.79
2339.27	9742.63
2340.2	9741.15
2341.14	9738.14
2342.07	9725.53
2343.01	9708.94
2343.94	9695.11
2344.88	9678.73
2345.81	9669.13
2346.75	9659.35
2347.68	9651.76
2348.61	9644.04
2349.55	9636.23
2350.48	9630.07
2351.41	9625.09
2352.35	9619.45
2353.28	9612.87
2354.21	9605.44
2355.15	9597.62
2356.08	9588.92
2357.01	9580.33
2357.94	9571.66
2358.88	9563.27
2359.81	9555.83
2360.74	9549.41
2361.67	9543.45
2362.6	9538.26
2363.54	9534.03
2364.47	9530.74
2365.4	9531.38
2366.33	9534.57
2367.26	9539.02
2368.19	9545.08
2369.12	9530.71
2370.05	9498.8
2370.98	9485.44
2371.91	9476.03
2372.84	9515.11
2373.77	9505.49
2374.7	9488.26
2375.63	9470.21
2376.56	9456.75
2377.49	9444.04
2378.42	9431.58
2379.35	9422.05
2380.28	9413.87
2381.21	9406.51
2382.14	9399.02
2383.07	9391.71
2384	9384.59
2384.92	9377.47
2385.85	9380.25
2386.78	9388.15
2387.71	9389
2388.64	9382.96
2389.56	9367.88
2390.49	9351.35
2391.42	9330.04
2392.35	9305.14
2393.27	9303.66
2394.2	9310.95
2395.13	9320.1
2396.05	9328.15
2396.98	9333.2
2397.91	9334.29
2398.83	9332.74
2399.76	9328.22
2400.69	9320.5
2401.61	9309.5
2402.54	9295.33
2403.46	9277.85
2404.39	9257.31
2405.31	9238.63
2406.24	9227.72
2407.17	9218.98
2408.09	9214.45
2409.01	9212.29
2409.94	9212.07
2410.86	9213.79
2411.79	9219.07
2412.71	9225.36
2413.64	9231.46
2414.56	9231.94
2415.49	9216.23
2416.41	9193.58
2417.33	9163.07
2418.26	9135.18
2419.18	9113.83
2420.1	9108.69
2421.03	9109.1
2421.95	9110.51
2422.87	9110.76
2423.79	9105.85
2424.72	9094.52
2425.64	9081.66
2426.56	9069.49
2427.48	9056.8
2428.41	9043.36
2429.33	9029.78
2430.25	9015.58
2431.17	9001.05
2432.09	8986.44
2433.01	8972.15
2433.93	8959.42
2434.86	8948.76
2435.78	8940.4
2436.7	8936.4
2437.62	8930.95
2438.54	8924.47
2439.46	8916.37
2440.38	8904.29
2441.3	8893.74
2442.22	8882.98
2443.14	8872.14
2444.06	8861.46
2444.98	8851.71
2445.9	8841.47
2446.82	8831.92
2447.73	8821.76
2448.65	8812.07
2449.57	8803.09
2450.49	8797.12
2451.41	8802.36
2452.33	8794.28
2453.25	8784.93
2454.17	8777.21
2455.08	8767.22
2456	8756.3
2456.92	8749.14
2457.84	8745.24
2458.75	8753.1
2459.67	8758.02
2460.59	8755.32
2461.51	8750.17
2462.42	8739.71
2463.34	8728.88
2464.26	8702.33
2465.17	8670.02
2466.09	8643.39
2467	8626.36
2467.92	8656.67
2468.84	8712.4
2469.75	8679.01
2470.67	8657.78
2471.58	8613.6
2472.5	8613.57
2473.42	8612.74
2474.33	8610.75
2475.25	8608.36
2476.16	8626.62
2477.08	8625.22
2477.99	8622.07
2478.9	8614.08
2479.82	8600.76
2480.73	8579.02
2481.65	8561.64
2482.56	8543.7
2483.47	8529.19
2484.39	8521.18
2485.3	8518.2
2486.22	8519.96
2487.13	8529.02
2488.04	8539.31
2488.96	8541.53
2489.87	8534.21
2490.78	8526.07
2491.69	8515.58
2492.61	8504.62
2493.52	8493.99
2494.43	8484.25
2495.34	8477.89
2496.25	8473.81
2497.17	8469.15
2498.08	8462.33
2498.99	8453.97
2499.9	8447.2
2500.81	8443.61
2501.72	8441.57
2502.63	8435.53
2503.55	8424.91
2504.46	8409.63
2505.37	8390.32
2506.28	8365.02
2507.19	8345.1
2508.1	8335.93
2509.01	8338.92
2509.92	8349.33
2510.83	8359.39
2511.74	8364.03
2512.65	8364.5
2513.56	8359.42
2514.47	8352.29
2515.37	8341.5
2516.28	8328.7
2517.19	8316.69
2518.1	8314.54
2519.01	8321.8
2519.92	8328.29
2520.83	8325.41
2521.73	8322.78
2522.64	8314.6
2523.55	8304.88
2524.46	8294.87
2525.37	8290.54
2526.27	8288.77
2527.18	8288.02
2528.09	8288.83
2529	8290.62
2529.9	8293.58
2530.81	8297.29
2531.72	8297.3
2532.62	8293.14
2533.53	8270.24
2534.44	8239.52
2535.34	8213.67
2536.25	8198.98
2537.15	8193.38
2538.06	8202.83
2538.96	8203.95
2539.87	8204.3
2540.78	8206.07
2541.68	8201.94
2542.59	8187.64
2543.49	8176.09
2544.4	8164.55
2545.3	8154.62
2546.21	8147.42
2547.11	8140.05
2548.01	8132.03
2548.92	8123.53
2549.82	8114.51
2550.73	8104.58
2551.63	8093.9
2552.53	8082.62
2553.44	8070.8
2554.34	8058.81
2555.24	8047.98
2556.15	8043.34
2557.05	8043.56
2557.95	8044.56
2558.86	8044.67
2559.76	8039.21
2560.66	8028.45
2561.56	8016.99
2562.46	8003.87
2563.37	7989.82
2564.27	7973.08
2565.17	7958.27
2566.07	7948.54
2566.97	7941.55
2567.88	7938.41
2568.78	7932.72
2569.68	7928.29
2570.58	7924.8
2571.48	7921.33
2572.38	7917.77
2573.28	7913.04
2574.18	7905.95
2575.08	7896.25
2575.98	7881.76
2576.88	7866.11
2577.78	7848.3
2578.68	7832.47
2579.58	7824.79
2580.48	7821.53
2581.38	7816.73
2582.28	7809.86
2583.18	7801.16
2584.08	7791.46
2584.98	7785.57
2585.88	7759.61
2586.77	7731.99
2587.67	7743.72
2588.57	7742.27
2589.47	7735.21
2590.37	7733.19
2591.27	7725.55
2592.16	7716.57
2593.06	7707.26
2593.96	7697.85
2594.86	7687.14
2595.75	7684.08
2596.65	7686.32
2597.55	7679.43
2598.45	7670.49
2599.34	7660.4
2600.24	7649.14
2601.13	7636.73
2602.03	7623.54
2602.93	7623.98
2603.82	7620.19
2604.72	7625.12
2605.62	7616.25
2606.51	7605.7
2607.41	7592.58
2608.3	7577.01
2609.2	7558.35
2610.09	7541.07
2610.99	7538.38
2611.88	7542.66
2612.78	7545.28
2613.67	7544.77
2614.57	7540.94
2615.46	7533.38
2616.36	7522.33
2617.25	7508.9
2618.14	7491.05
2619.04	7481.3
2619.93	7476.7
2620.83	7478.21
2621.72	7482.4
2622.61	7483.69
2623.5	7482.05
2624.4	7476.93
2625.29	7468.93
2626.18	7458.21
2627.08	7446.32
2627.97	7436.29
2628.86	7429.73
2629.75	7425.1
2630.65	7415.62
2631.54	7407.37
2632.43	7452.72
2633.32	7418.68
2634.21	7394.62
2635.11	7374.01
2636	7359.43
2636.89	7351.23
2637.78	7345.45
2638.67	7336.84
2639.56	7329.96
2640.45	7322.57
2641.34	7315.06
2642.23	7306.59
2643.12	7296.65
2644.01	7285.17
2644.9	7271.99
2645.79	7257.74
2646.68	7242.5
2647.57	7226.62
2648.46	7210.06
2649.35	7208.69
2650.24	7207.86
2651.13	7201.31
2652.02	7195.1
2652.91	7189.69
2653.8	7184.47
2654.69	7179.32
2655.58	7174.31
2656.46	7169.65
2657.35	7164.93
2658.24	7159.97
2659.13	7153.61
2660.02	7140.26
2660.9	7128
2661.79	7120.89
2662.68	7115.21
2663.57	7110.07
2664.45	7105.5
2665.34	7098.2
2666.23	7091.38
2667.11	7084.61
2668	7077.79
2668.89	7071
2669.77	7063.56
2670.66	7056.1
2671.55	7048.75
2672.43	7041.79
2673.32	7035.96
2674.21	7032.52
2675.09	7030.37
2675.98	7034.81
2676.86	7038.51
2677.75	7042.11
2678.63	7036.47
2679.52	7011.59
2680.4	6991.05
2681.29	6972.19
2682.17	6957
2683.06	6945.58
2683.94	6936.3
2684.82	6929.41
2685.71	6924.94
2686.59	6921.97
2687.48	6921.13
2688.36	6902.41
2689.24	6874.98
2690.13	6858.92
2691.01	6849.56
2691.89	6842.92
2692.78	6836.53
2693.66	6829.92
2694.54	6821.22
2695.43	6812.37
2696.31	6804.73
2697.19	6797.77
2698.07	6791.65
2698.96	6787.56
2699.84	6782.61
2700.72	6776.87
2701.6	6770.42
2702.48	6764.15
2703.36	6756.12
2704.25	6747.94
2705.13	6738.74
2706.01	6729.61
2706.89	6720.57
2707.77	6712.09
2708.65	6705.14
2709.53	6698.27
2710.41	6692.44
2711.29	6686.92
2712.17	6681.78
2713.05	6676.32
2713.93	6672.23
2714.81	6666.33
2715.69	6659.1
2716.57	6651.73
2717.45	6639.82
2718.33	6631.13
2719.21	6626.21
2720.09	6621.93
2720.97	6619.09
2721.85	6616.97
2722.73	6616.98
2723.61	6615.17
2724.48	6606.48
2725.36	6597.16
2726.24	6586.38
2727.12	6579.14
2728	6573.13
2728.88	6568.47
2729.75	6565.79
2730.63	6565.74
2731.51	6567.74
2732.39	6572.66
2733.26	6579.44
2734.14	6566.07
2735.02	6553.49
2735.89	6538.13
2736.77	6525.71
2737.65	6516.69
2738.52	6511.06
2739.4	6508.92
2740.28	6509.77
2741.15	6514.17
2742.03	6510.55
2742.9	6495.57
2743.78	6480.1
2744.65	6467.19
2745.53	6453.42
2746.41	6451.92
2747.28	6452.82
2748.16	6452.46
2749.03	6451
2749.91	6453.35
2750.78	6453.79
2751.66	6442.69
2752.53	6428
2753.4	6415.11
2754.28	6406.81
2755.15	6401.08
2756.02	6395.39
2756.9	6395.55
2757.77	6397.47
2758.65	6400.37
2759.52	6399.07
2760.39	6390.47
2761.27	6384.98
2762.14	6379.53
2763.01	6373.98
2763.88	6368.44
2764.76	6362.77
2765.63	6357.42
2766.5	6352.46
2767.37	6347.23
2768.25	6341.56
2769.12	6334.87
2769.99	6327.87
2770.86	6320.19
2771.73	6311.24
2772.61	6299.18
2773.48	6282.35
2774.35	6263.9
2775.22	6246.56
2776.09	6234.52
2776.96	6220.39
2777.83	6225.65
2778.7	6230.85
2779.57	6235.9
2780.44	6240.42
2781.31	6238.94
2782.18	6237.17
2783.05	6233.68
2783.92	6228.76
2784.79	6222.79
2785.66	6215.81
2786.53	6208.62
2787.4	6202.08
2788.27	6193.41
2789.14	6181.34
2790.01	6168.15
2790.88	6160.43
2791.75	6149.71
2792.62	6144.64
2793.48	6150.06
2794.35	6159.97
2795.22	6169.34
2796.09	6171.47
2796.96	6159.5
2797.82	6146.59
2798.69	6127.95
2799.56	6109.05
2800.43	6086.82
2801.29	6076.57
2802.16	6071.69
2803.03	6075.25
2803.9	6071.26
2804.76	6070.96
2805.63	6061.45
2806.5	6051.78
2807.36	6042.55
2808.23	6031.25
2809.09	6028.73
2809.96	6031.22
2810.83	6032.64
2811.69	6032.54
2812.56	6024.46
2813.42	6011.22
2814.29	5994.92
2815.15	5982.81
2816.02	5972.3
2816.88	5969.21
2817.75	5987.14
2818.61	5993.02
2819.48	6000.48
2820.34	5999.37
2821.21	5988.58
2822.07	5980.19
2822.94	5968.42
2823.8	5954.04
2824.66	5939.48
2825.53	5933.6
2826.39	5932.62
2827.26	5926.83
2828.12	5919.77
2828.98	5915.57
2829.85	5912.01
2830.71	5909.27
2831.57	5907.23
2832.43	5905.87
2833.3	5904.87
2834.16	5903.96
2835.02	5902.45
2835.88	5893.66
2836.75	5882.98
2837.61	5869.97
2838.47	5855.35
2839.33	5841.31
2840.19	5829.73
2841.06	5822
2841.92	5809.22
2842.78	5809.77
2843.64	5823.64
2844.5	5835.56
2845.36	5838.23
2846.22	5831.82
2847.08	5817.72
2847.94	5796.76
2848.81	5804.89
2849.67	5802.41
2850.53	5799.57
2851.39	5796.47
2852.25	5793.45
2853.11	5789.85
2853.97	5783.19
2854.82	5774.25
2855.68	5764.7
2856.54	5755.26
2857.4	5746.27
2858.26	5738.36
2859.12	5731.28
2859.98	5726.94
2860.84	5720.52
2861.7	5714.24
2862.56	5705.58
2863.41	5693.23
2864.27	5692.57
2865.13	5692.77
2865.99	5694.46
2866.85	5697.79
2867.7	5704.77
2868.56	5711.98
2869.42	5707.99
2870.28	5700.8
2871.13	5684.88
2871.99	5678.64
2872.85	5679.75
2873.7	5679.9
2874.56	5679.01
2875.42	5674.9
2876.27	5669.61
2877.13	5662.66
2877.99	5654.16
2878.84	5644.03
2879.7	5632.38
2880.56	5619.3
2881.41	5605.88
2882.27	5594.83
2883.12	5584.23
2883.98	5575.24
2884.83	5570.62
2885.69	5567.81
2886.54	5567.81
2887.4	5567.48
2888.25	5567.15
2889.11	5566.64
2889.96	5565.93
2890.82	5565.04
2891.67	5563.62
2892.52	5559.44
2893.38	5553
2894.23	5541.44
2895.09	5525.15
2895.94	5512.55
2896.79	5503.13
2897.65	5499.64
2898.5	5498.91
2899.35	5499.64
2900.21	5499.07
2901.06	5490.22
2901.91	5479.37
2902.76	5465.81
2903.62	5449.58
2904.47	5433.86
2905.32	5418.68
2906.17	5411.66
2907.03	5406.04
2907.88	5401.32
2908.73	5398.01
2909.58	5396.17
2910.43	5395.26
2911.28	5394.75
2912.14	5393.67
2912.99	5390.66
2913.84	5386.63
2914.69	5381.76
2915.54	5376.48
2916.39	5370.66
2917.24	5364.24
2918.09	5357.38
2918.94	5349.93
2919.79	5342.03
2920.64	5331.51
2921.49	5319.46
2922.34	5307.7
2923.19	5301.48
2924.04	5306.99
2924.89	5306.98
2925.74	5305.59
2926.59	5304.49
2927.44	5300.48
2928.29	5295.38
2929.14	5288.71
2929.98	5280.84
2930.83	5272.04
2931.68	5262.92
2932.53	5258.49
2933.38	5253.01
2934.23	5247.26
2935.07	5241.47
2935.92	5235.47
2936.77	5229.06
2937.62	5222.12
2938.47	5214.74
2939.31	5206.48
2940.16	5197.72
2941.01	5188.49
2941.85	5179.13
2942.7	5174.41
2943.55	5177.34
2944.39	5182.59
2945.24	5186.99
2946.09	5188.57
2946.93	5192.66
2947.78	5194.86
2948.63	5194.19
2949.47	5189.09
2950.32	5175.31
2951.16	5164.11
2952.01	5148.03
2952.85	5134.94
2953.7	5126.63
2954.55	5123.94
2955.39	5127.49
2956.24	5127.75
2957.08	5124.93
2957.92	5119.07
2958.77	5110.45
2959.61	5099.17
2960.46	5087.66
2961.3	5076.87
2962.15	5066.16
2962.99	5056.6
2963.83	5048.44
2964.68	5041.1
2965.52	5034.8
2966.37	5029.62
2967.21	5025.42
2968.05	5022.84
2968.9	5021.27
2969.74	5019.97
2970.58	5018.71
2971.42	5017.14
2972.27	5015.74
2973.11	5016.84
2973.95	5017.1
2974.79	5015.68
2975.64	5011.54
2976.48	5001.15
2977.32	4988.41
2978.16	4970.29
2979	4954.58
2979.85	4950.33
2980.69	4954.08
2981.53	4961.67
2982.37	4968
2983.21	4977.69
2984.05	4982.77
2984.89	4984.4
2985.73	4981.81
2986.57	4976.05
2987.41	4969.25
2988.25	4958.97
2989.1	4955.63
2989.94	4958.5
2990.77	4956.53
2991.62	4954.84
2992.45	4952.65
2993.29	4949.52
2994.13	4944.77
2994.97	4938.89
2995.81	4931.6
2996.65	4922.5
2997.49	4907.87
2998.33	4915.17
2999.17	4834.85
