200.833	20874.5
202.102	20891.3
203.371	20927.9
204.639	20930.8
205.907	20915.2
207.175	20915
208.442	20924.3
209.71	20943.8
210.977	20972.5
212.244	20994.8
213.511	21010.1
214.777	21009.5
216.042	21013.1
217.309	21018.9
218.575	21031.6
219.84	21053.3
221.106	21089
222.371	21131.1
223.635	21181.6
224.9	21252.5
226.165	21315.6
227.429	21355.2
228.694	21390.5
229.956	21422.2
231.22	21452.2
232.484	21489
233.747	21528.3
235.011	21566.2
236.272	21608.5
237.535	21651
238.798	21690.8
240.06	21726.5
241.321	21752.8
242.583	21783.6
243.845	21828.4
245.105	21868
246.367	21904.5
247.628	21934.4
248.888	21951.7
250.149	21966.1
251.409	21972.8
252.67	21971.3
253.928	21964.2
255.189	21959.1
256.447	21958.2
257.707	21960.5
258.966	21967.6
260.224	21978.2
261.483	21993
262.742	22011.4
263.999	22032.6
265.257	22056.7
266.514	22079.8
267.772	22110.1
269.028	22140.7
270.286	22175.4
271.543	22210.8
272.799	22245.9
274.056	22269.9
275.311	22286.9
276.568	22297.8
277.823	22305.2
279.079	22304.7
280.333	22332.1
281.589	22369.1
282.843	22408.1
284.099	22447.2
285.352	22485.2
286.607	22521.3
287.86	22555.4
289.114	22586.5
290.368	22615.1
291.621	22639.5
292.875	22660.6
294.127	22678.1
295.38	22692.5
296.632	22694.1
297.884	22651.5
299.137	22676.2
300.388	22725.2
301.641	22769
302.891	22778.2
304.142	22769.8
305.394	22757.2
306.644	22746.3
307.894	22759.5
309.146	22771.2
310.395	22784.9
311.645	22799.5
312.895	22811.5
314.144	22825.1
315.393	22842.6
316.642	22862.7
317.892	22884.4
319.14	22907.9
320.388	22930.4
321.637	22946.1
322.885	22959
324.132	22969.6
325.38	22979
326.628	22989.2
327.875	23000.3
329.122	23014.3
330.368	23031.2
331.614	23051.4
332.862	23075.4
334.108	23115.8
335.353	23189
336.599	23231.5
337.844	23243.7
339.089	23167.1
340.335	23151.4
341.58	23194.7
342.824	23262.4
344.068	23289.9
345.312	23307.1
346.556	23316.3
347.8	23325.6
349.043	23332.4
350.286	23334
351.53	23334.8
352.774	23337.1
354.016	23339.7
355.259	23343.3
356.501	23348
357.743	23354.7
358.985	23362.6
360.227	23372.9
361.468	23381.2
362.709	23386.7
363.95	23390.2
365.191	23393
366.432	23395.2
367.672	23397.5
368.912	23400.6
370.152	23404.2
371.392	23408.4
372.632	23411.5
373.871	23420.9
375.11	23438.1
376.348	23464.4
377.587	23480.6
378.825	23489.3
380.064	23495.9
381.302	23498.7
382.54	23493.6
383.778	23483.7
385.016	23471.5
386.253	23468.9
387.489	23501
388.726	23546.3
389.963	23615.3
391.199	23671
392.436	23711
393.672	23723.9
394.907	23711.7
396.142	23713.9
397.378	23710
398.614	23714.2
399.849	23727
401.082	23736.5
402.317	23745.5
403.552	23744.7
404.786	23743.4
406.019	23748.4
407.253	23758.4
408.487	23784.7
409.721	23809.6
410.953	23831.8
412.186	23850.2
413.419	23860.6
414.651	23868.5
415.883	23871.3
417.116	23870.4
418.347	23865.5
419.579	23858.5
420.811	23856.6
422.041	23857.6
423.272	23861.1
424.504	23866.8
425.733	23873.8
426.964	23882.3
428.194	23892
429.424	23903.5
430.654	23916.3
431.883	23930.3
433.113	23944.1
434.341	23952.7
435.571	23955.2
436.799	23915.7
438.028	23930.1
439.257	23942.8
440.484	23952.1
441.713	23959.9
442.94	23967.2
444.168	23972.9
445.394	23979.8
446.622	23989.4
447.848	24003.4
449.076	24019.3
450.301	24037.4
451.528	24056.6
452.754	24077.3
453.979	24096
455.205	24112.2
456.43	24124.8
457.656	24134.3
458.88	24139.5
460.106	24140.9
461.33	24139.1
462.554	24134
463.779	24126.4
465.002	24117.4
466.225	24125.7
467.45	24138.3
468.672	24167.3
469.895	24191.3
471.119	24189.5
472.341	24195.8
473.563	24178
474.786	24149.1
476.008	24137.2
477.229	24129.7
478.452	24128.7
479.673	24133.9
480.894	24127.7
482.115	24110.6
483.337	24084.8
484.557	24098.7
485.777	24122.5
486.997	24138.5
488.218	24134.4
489.438	24127.1
490.657	24114.6
491.876	24095.3
493.096	24070.1
494.315	24040.9
495.533	24011.5
496.752	24005.3
497.97	24017.4
499.188	24029.5
500.407	24039.5
501.625	24046.1
502.842	24045.1
504.059	24021.8
505.276	24008.8
506.493	23999.8
507.71	23995.6
508.926	24010.3
510.142	24034.8
511.358	24062.7
512.575	24087.1
513.791	24110.8
515.006	24130.2
516.222	24149.2
517.437	24164
518.651	24174.8
519.866	24174.2
521.081	24155.8
522.295	24153.1
523.509	24157.3
524.723	24169
525.937	24185.4
527.15	24229.5
528.363	24257.7
529.576	24290.5
530.789	24295.1
532.002	24274.5
533.215	24267.1
534.426	24258.5
535.638	24272.9
536.85	24281.3
538.061	24287.5
539.273	24254.3
540.484	24219.3
541.695	24256.5
542.906	24328.1
544.117	24313.3
545.327	24303.3
546.537	24296.8
547.747	24290.5
548.957	24284.2
550.167	24279.9
551.377	24279
552.585	24283.7
553.794	24290.6
555.003	24300
556.212	24307.9
557.421	24319.9
558.628	24328.2
559.836	24328.3
561.044	24323.8
562.252	24314.7
563.458	24302.5
564.666	24289.3
565.873	24278.5
567.08	24268.6
568.286	24257.2
569.493	24248.4
570.699	24249.1
571.904	24257
573.111	24272
574.317	24284.5
575.521	24295.4
576.727	24304.6
577.932	24313.8
579.136	24321.6
580.341	24327.2
581.544	24331.4
582.749	24299.7
583.954	24273
585.156	24316.1
586.361	24366.2
587.563	24384.2
588.767	24381.3
589.97	24372.5
591.172	24361.7
592.375	24348.4
593.577	24336.3
594.78	24328.7
595.981	24325.9
597.183	24326.6
598.384	24329
599.586	24308.3
600.786	24280.7
601.988	24266.6
603.188	24260.6
604.389	24262.5
605.589	24273.2
606.79	24258.2
607.989	24245.6
609.188	24232.4
610.389	24219.6
611.587	24206.8
612.787	24195.5
613.986	24196.5
615.184	24193.8
616.383	24190.1
617.581	24183.1
618.78	24163.2
619.977	24143
621.174	24119.5
622.373	24092.7
623.57	24059.7
624.766	24024.8
625.964	23995.8
627.16	23996.5
628.356	23996
629.554	24020.7
630.749	24062.5
631.945	24182.4
633.14	24028.9
634.337	24026.8
635.532	24022.6
636.726	23991.5
637.921	23961.6
639.117	23931.7
640.311	23908.4
641.505	23894.3
642.699	23891.1
643.892	23902.6
645.087	23918.6
646.28	23932.5
647.473	23944.1
648.666	23953.2
649.859	23959.6
651.051	23959.4
652.245	23951.3
653.437	23927.7
654.629	23937.5
655.821	23957.9
657.012	23973.1
658.204	24014.7
659.395	24018.9
660.586	24016.7
661.777	23985.7
662.967	23974.7
664.158	23995.2
665.349	24004.8
666.539	24005.9
667.729	24002.9
668.919	23993.9
670.109	23986.4
671.298	23988.2
672.487	23987.8
673.676	23985.4
674.865	23982.4
676.053	23981.8
677.242	23985.5
678.43	23994.1
679.616	23999.6
680.804	24002
681.992	24002.7
683.179	24000.7
684.366	23997.4
685.554	23993.9
686.74	23989.9
687.927	23996.1
689.114	23991.3
690.3	23980.6
691.486	23962.6
692.671	23938.9
693.856	23910
695.042	23876.5
696.227	23848.9
697.413	23840
698.598	23851.8
699.781	23886.5
700.966	23912.7
702.15	23926.7
703.334	23910.5
704.518	23858.5
705.701	23824.9
706.885	23788
708.068	23751.5
709.252	23724.5
710.433	23726.1
711.616	23737.1
712.799	23758.2
713.98	23775
715.163	23778.9
716.345	23773.1
717.527	23761.5
718.707	23736.8
719.889	23724
721.071	23716.4
722.25	23727.2
723.432	23725.7
724.611	23714.6
725.792	23702.1
726.972	23708.5
728.151	23717.5
729.332	23728.4
730.512	23741
731.69	23755
732.87	23770
734.048	23777.1
735.227	23785.5
736.405	23793.9
737.584	23802.1
738.761	23810.4
739.94	23818.3
741.117	23826.1
742.295	23832.6
743.471	23837.1
744.649	23838.7
745.825	23836.8
747.003	23831.4
748.179	23823.1
749.356	23812.8
750.531	23825.3
751.708	23848.5
752.883	23857.8
754.059	23826.8
755.234	23735
756.409	23786.6
757.585	23791.2
758.759	23799
759.934	23798.2
761.108	23792.5
762.282	23792.1
763.456	23788
764.63	23781.2
765.803	23771.5
766.977	23758.3
768.15	23739.7
769.323	23720.7
770.496	23704.6
771.668	23693.9
772.841	23689.5
774.014	23686
775.185	23684.1
776.357	23684.6
777.528	23680.6
778.701	23653.7
779.872	23635.6
781.042	23624.6
782.213	23615.3
783.383	23604.8
784.555	23594.9
785.725	23585.4
786.895	23572.8
788.064	23549.6
789.234	23504.1
790.404	23460.1
791.573	23409
792.742	23395
793.911	23404.1
795.08	23499.2
796.248	23505.9
797.416	23477.5
798.584	23428.8
799.753	23380.4
800.921	23373.4
802.088	23379.1
803.256	23393
804.423	23404.6
805.59	23418.1
806.756	23424.1
807.923	23418
809.089	23413
810.256	23404.9
811.422	23390.3
812.587	23387.4
813.753	23396.2
814.918	23413
816.084	23424.1
817.249	23433.3
818.414	23440.1
819.578	23442.8
820.743	23443.6
821.907	23444.6
823.072	23445.5
824.236	23447.8
825.399	23452.4
826.562	23460.5
827.725	23478.5
828.889	23489.5
830.052	23492.2
831.215	23491.8
832.377	23485.8
833.54	23475.5
834.701	23464.2
835.863	23460.7
837.025	23454
838.187	23449
839.349	23452.6
840.51	23458.3
841.67	23488.6
842.831	23517.6
843.992	23580.5
845.153	23478.7
846.312	23490.7
847.473	23509.9
848.633	23488.1
849.793	23466.7
850.951	23433.1
852.111	23396.6
853.27	23364.9
854.428	23340.2
855.588	23322
856.747	23303.7
857.904	23295.9
859.063	23290
860.221	23281.8
861.378	23258.3
862.536	23243.2
863.694	23230.9
864.85	23219.8
866.008	23208.7
867.164	23195.6
868.321	23183.2
869.478	23171.2
870.633	23159.4
871.79	23148.4
872.945	23136.5
874.101	23122.3
875.256	23103.6
876.412	23061.6
877.566	23024.6
878.722	22993.4
879.876	22974.3
881.031	22966.1
882.185	22963
883.34	22964.6
884.493	22959
885.647	22948.4
886.8	22937.2
887.954	22924.2
889.107	22910.1
890.261	22894.3
891.413	22878
892.565	22870
893.718	22866.2
894.87	22868.4
896.023	22866.3
897.174	22863
898.326	22859.2
899.478	22853.7
900.629	22846.2
901.779	22836.5
902.931	22825.8
904.081	22821
905.231	22821.1
906.383	22835.6
907.532	22852.1
908.682	22874.5
909.831	22902.5
910.982	22931.3
912.131	22936.3
913.28	22921.1
914.429	22921.5
915.578	22929.7
916.727	22942.5
917.875	22963.5
919.023	22993.5
920.171	23003.3
921.32	23025.9
922.467	22990.4
923.614	22919.1
924.761	22859.6
925.908	22838.9
927.055	22856.2
928.203	22893.7
929.349	22910.3
930.496	22909.1
931.642	22905
932.787	22902.4
933.933	22903.9
935.079	22900.1
936.224	22895.1
937.369	22888.3
938.514	22878.9
939.659	22868.3
940.804	22858.7
941.948	22848.7
943.092	22838.1
944.236	22825.6
945.38	22815.7
946.524	22807.1
947.667	22800.6
948.811	22796.6
949.954	22794.4
951.097	22773.5
952.24	22747.4
953.383	22720.9
954.525	22694
955.667	22666
956.81	22647.7
957.952	22635.5
959.093	22625.2
960.235	22615.5
961.376	22607.2
962.516	22592.7
963.658	22562.6
964.798	22545.9
965.939	22538
967.08	22532
968.22	22534.5
969.359	22540.6
970.499	22538.5
971.639	22537.6
972.779	22528.4
973.918	22524.4
975.056	22523.3
976.195	22534.1
977.334	22560.4
978.473	22569.6
979.61	22570.7
980.749	22559.4
981.887	22552.7
983.024	22544.2
984.162	22533.9
985.3	22523.5
986.437	22513.1
987.573	22500.6
988.711	22487.8
989.848	22475.1
990.983	22465.1
992.12	22486.9
993.255	22502.4
994.392	22514.1
995.528	22522.6
996.662	22525.5
997.798	22528
998.933	22533.6
1000.07	22540.8
1001.2	22549.7
1002.34	22564.5
1003.47	22568.6
1004.61	22560.9
1005.74	22536.3
1006.87	22532.2
1008.01	22532.4
1009.14	22530.1
1010.27	22530.7
1011.41	22527
1012.54	22519.2
1013.67	22496
1014.81	22468
1015.94	22447.1
1017.07	22496.2
1018.2	22511.9
1019.33	22506.3
1020.47	22493.1
1021.6	22474.3
1022.73	22453.4
1023.86	22430.4
1024.99	22407.1
1026.12	22380.1
1027.25	22382.6
1028.38	22402.5
1029.51	22419.9
1030.64	22428.5
1031.77	22390
1032.9	22348.9
1034.03	22290.7
1035.16	22261.5
1036.29	22233.8
1037.42	22209.8
1038.55	22193.1
1039.67	22183.6
1040.8	22179.8
1041.93	22176.7
1043.06	22172.5
1044.19	22160.1
1045.31	22148.6
1046.44	22135.6
1047.57	22121.6
1048.69	22106.3
1049.82	22089.7
1050.95	22072.7
1052.08	22055.5
1053.2	22039.1
1054.33	22023.3
1055.45	22008.4
1056.58	21994.8
1057.7	21982.3
1058.83	21970.4
1059.95	21959.1
1061.08	21947.4
1062.2	21936
1063.33	21922.9
1064.45	21919.6
1065.58	21930
1066.7	21936.7
1067.83	21937.9
1068.95	21939.8
1070.07	21941.4
1071.2	21942.1
1072.32	21941.5
1073.44	21940
1074.56	21936.7
1075.69	21932.3
1076.81	21926.4
1077.93	21920.4
1079.05	21918.4
1080.17	21918.2
1081.3	21942.9
1082.42	21948.2
1083.54	21941.9
1084.66	21932.9
1085.78	21921
1086.9	21911.7
1088.02	21905.2
1089.14	21900.1
1090.26	21896.4
1091.38	21894
1092.5	21893.4
1093.62	21894.3
1094.74	21896.9
1095.86	21901.3
1096.98	21908.1
1098.1	21919.3
1099.22	21934.1
1100.34	21946.1
1101.45	21938.4
1102.57	21928.1
1103.69	21914.4
1104.81	21900.9
1105.93	21886.8
1107.04	21869.3
1108.16	21852
1109.28	21833.7
1110.4	21816
1111.51	21798.8
1112.63	21783.9
1113.75	21773.6
1114.86	21758
1115.98	21742.4
1117.09	21727.8
1118.21	21713
1119.32	21707.1
1120.44	21704.9
1121.55	21692.2
1122.67	21678.2
1123.78	21644.7
1124.9	21594.8
1126.01	21578.7
1127.13	21569.2
1128.24	21563.1
1129.35	21546.6
1130.47	21519.9
1131.58	21485.2
1132.7	21449.2
1133.81	21418.3
1134.92	21388.2
1136.03	21360.7
1137.15	21335.2
1138.26	21311.7
1139.37	21290.2
1140.48	21270.7
1141.59	21253.2
1142.71	21237.3
1143.82	21224.1
1144.93	21223
1146.04	21227.5
1147.15	21230.3
1148.26	21227.4
1149.37	21216.5
1150.48	21196.2
1151.59	21180.1
1152.7	21159.8
1153.81	21148.5
1154.92	21141.2
1156.03	21136.5
1157.14	21131.2
1158.25	21116.4
1159.36	21100.3
1160.47	21082.4
1161.58	21067.3
1162.68	21047.8
1163.79	21040.6
1164.9	21040
1166.01	21045.5
1167.12	21055.5
1168.22	21067.5
1169.33	21075.8
1170.44	21082.5
1171.55	21086.6
1172.65	21089.7
1173.76	21089.6
1174.87	21086.8
1175.97	21083.1
1177.08	21079.6
1178.18	21082
1179.29	21091.1
1180.4	21095.8
1181.5	21092.7
1182.61	21087.7
1183.71	21078.8
1184.82	21080.8
1185.92	21101.6
1187.02	21108.1
1188.13	21103.5
1189.23	21047.4
1190.34	21043.1
1191.44	21052.9
1192.54	21065.5
1193.65	21084.4
1194.75	21103.7
1195.85	21117.8
1196.96	21129.2
1198.06	21126.7
1199.16	21127.5
1200.26	21127.3
1201.37	21126.4
1202.47	21124.8
1203.57	21122.4
1204.67	21118.8
1205.77	21112.3
1206.87	21104.6
1207.97	21095.8
1209.08	21086.3
1210.18	21074.9
1211.28	21063.3
1212.38	21054
1213.48	21047.2
1214.58	21042.7
1215.68	21040.6
1216.78	21040.8
1217.88	21043.4
1218.98	21048.4
1220.07	21056.2
1221.17	21065.1
1222.27	21060.4
1223.37	21034.8
1224.47	21006.8
1225.57	20980.3
1226.66	20961.6
1227.76	20944.3
1228.86	20927.4
1229.96	20922.8
1231.06	20903.9
1232.15	20883.6
1233.25	20866.7
1234.35	20849.7
1235.44	20838.4
1236.54	20831.7
1237.63	20821.6
1238.73	20809.6
1239.83	20797.3
1240.92	20784.4
1242.02	20770.5
1243.11	20755.7
1244.21	20740.9
1245.3	20722.8
1246.4	20704.8
1247.49	20686.2
1248.59	20666.6
1249.68	20653.9
1250.78	20647.1
1251.87	20644.6
1252.96	20645.8
1254.06	20650.8
1255.15	20659
1256.24	20663.7
1257.34	20658.8
1258.43	20637.9
1259.52	20614.1
1260.62	20599.7
1261.71	20585.5
1262.8	20576.4
1263.89	20570.5
1264.98	20568.4
1266.08	20569.2
1267.17	20573
1268.26	20578
1269.35	20566.4
1270.44	20552.2
1271.53	20548.8
1272.62	20559.4
1273.71	20565
1274.8	20583.4
1275.89	20593.1
1276.98	20606.6
1278.07	20608
1279.16	20602.9
1280.25	20599
1281.34	20596.8
1282.43	20593.5
1283.52	20602.3
1284.61	20628.1
1285.69	20668.8
1286.78	20620.7
1287.87	20624.2
1288.96	20629.3
1290.05	20631.6
1291.13	20635.5
1292.22	20640.6
1293.31	20645.2
1294.4	20649.1
1295.48	20651.6
1296.57	20651.6
1297.66	20648.3
1298.74	20643.6
1299.83	20640.9
1300.92	20635
1302	20628.7
1303.09	20621.1
1304.17	20613.9
1305.26	20607.2
1306.34	20602.9
1307.43	20600.4
1308.51	20598.1
1309.6	20601.7
1310.68	20607.8
1311.76	20609.7
1312.85	20609.5
1313.93	20596.8
1315.02	20576.4
1316.1	20542.8
1317.18	20514.9
1318.27	20487.1
1319.35	20476.3
1320.43	20478
1321.52	20486.2
1322.6	20497.7
1323.68	20508.3
1324.76	20509.4
1325.85	20488.5
1326.93	20448.9
1328.01	20422.8
1329.09	20404.4
1330.17	20396.3
1331.25	20392.2
1332.33	20398.3
1333.41	20400
1334.49	20397.2
1335.58	20382.7
1336.65	20365.3
1337.74	20344.8
1338.82	20341.4
1339.89	20339.8
1340.97	20337.4
1342.05	20338.3
1343.13	20336.4
1344.21	20332.7
1345.29	20323.4
1346.37	20310.5
1347.45	20298.3
1348.53	20287.9
1349.6	20297.1
1350.68	20283.6
1351.76	20258.8
1352.84	20250.4
1353.92	20245
1354.99	20242.9
1356.07	20242.5
1357.15	20238.9
1358.22	20237.9
1359.3	20239.4
1360.38	20241.8
1361.45	20243.4
1362.53	20244.4
1363.61	20251.8
1364.68	20259.9
1365.76	20264.6
1366.83	20270.1
1367.91	20269.8
1368.98	20262.1
1370.06	20249.5
1371.13	20233.5
1372.21	20216.1
1373.28	20199.2
1374.35	20191.9
1375.43	20187
1376.5	20184.6
1377.58	20186
1378.65	20191
1379.72	20197.3
1380.8	20200.9
1381.87	20197.3
1382.94	20189.1
1384.01	20179.5
1385.09	20167.2
1386.16	20153.3
1387.23	20137.5
1388.3	20121.5
1389.38	20103.4
1390.45	20084.4
1391.52	20068.5
1392.59	20060.1
1393.66	20069.7
1393.92	20072.5
1395	20086.1
1396.07	20100.5
1397.15	20120.7
1398.22	20126.6
1399.3	20113.4
1400.38	20084.4
1401.45	20060.1
1402.53	20040
1403.6	20027.3
1404.68	20020
1405.75	20013.7
1406.82	20009.8
1407.9	20006.9
1408.97	20005
1410.05	20002.3
1411.12	20001.5
1412.19	20000.9
1413.27	20000.7
1414.34	19997.3
1415.41	19968.2
1416.49	19943.2
1417.56	19915.8
1418.63	19891.4
1419.7	19871.1
1420.78	19865
1421.85	19864.5
1422.92	19864.2
1423.99	19861.3
1425.06	19856.6
1426.14	19845.4
1427.21	19831.7
1428.28	19818.8
1429.35	19807.2
1430.42	19798.5
1431.49	19799.6
1432.56	19794.8
1433.63	19790.4
1434.7	19786.3
1435.77	19781.6
1436.84	19776.5
1437.91	19772.9
1438.98	19771.8
1440.05	19776.7
1441.12	19782.7
1442.18	19776.8
1443.25	19768.4
1444.32	19758.6
1445.39	19747.3
1446.46	19735.9
1447.53	19722.4
1448.59	19725.5
1449.66	19722
1450.73	19714.9
1451.8	19704.9
1452.86	19693.4
1453.93	19682
1455	19666.7
1456.06	19661.3
1457.13	19660.8
1458.2	19679.6
1459.26	19701.7
1460.33	19715.1
1461.39	19719.9
1462.46	19715.8
1463.52	19712.8
1464.59	19709.1
1465.65	19702
1466.72	19694.4
1467.78	19687.3
1468.85	19681
1469.91	19675.7
1470.98	19672.9
1472.04	19671.6
1473.1	19671.5
1474.17	19672.9
1475.23	19675.9
1476.3	19624.7
1477.36	19585.7
1478.42	19568.9
1479.48	19567.2
1480.55	19575.4
1481.61	19583.2
1482.67	19594.8
1483.73	19601.7
1484.8	19614.3
1485.86	19625.4
1486.92	19638.6
1487.98	19636.5
1489.04	19611.9
1490.1	19591.4
1491.17	19569
1492.23	19548.7
1493.29	19530.6
1494.35	19516.3
1495.41	19504.6
1496.47	19494.8
1497.53	19487.1
1498.59	19479.9
1499.65	19476.7
1500.71	19518.3
1501.77	19523.2
1502.83	19523.3
1503.88	19465.8
1504.94	19391.5
1506	19379
1507.06	19412.7
1508.12	19473.6
1509.18	19397
1510.23	19375.9
1511.29	19372
1512.35	19367.1
1513.41	19359.9
1514.47	19350.6
1515.52	19338.7
1516.58	19323
1517.64	19307.1
1518.69	19291.7
1519.75	19282.8
1520.81	19276.6
1521.86	19272.5
1522.92	19268.9
1523.97	19264.1
1525.03	19244.4
1526.08	19207.1
1527.14	19198.7
1528.2	19197.4
1529.25	19202.6
1530.31	19206.9
1531.36	19194.8
1532.42	19186
1533.47	19177.1
1534.52	19168
1535.58	19157.1
1536.63	19145.7
1537.69	19137.7
1538.74	19137.6
1539.79	19144.9
1540.84	19150.9
1541.9	19147.9
1542.95	19145.5
1544	19141.9
1545.06	19137.3
1546.11	19130.9
1547.16	19124.3
1548.21	19114.1
1549.27	19093.8
1550.32	19073.7
1551.37	19056
1552.42	19045.6
1553.47	19051.2
1554.52	19064.5
1555.57	19079.5
1556.62	19098.7
1557.67	19118.7
1558.72	19121.7
1559.77	19120.6
1560.82	19113.5
1561.87	19095.4
1562.92	19079.4
1563.97	19066.5
1565.02	19054.6
1566.07	19050.2
1567.12	19046.8
1568.17	19046.3
1569.22	19047.6
1570.27	19052.1
1571.32	19057.5
1572.36	19057.6
1573.41	19050.4
1574.46	19035
1575.51	19020.9
1576.56	19008.1
1577.6	18997.3
1578.65	18988.6
1579.7	18980.8
1580.74	18973.7
1581.79	18964.8
1582.84	18956.9
1583.88	18955.2
1584.93	18960.9
1585.98	18972.5
1587.02	18976.4
1588.07	18973.7
1589.11	18963.4
1590.16	18951.2
1591.2	18933.7
1592.25	18909.1
1593.29	18885.5
1594.34	18865.4
1595.38	18859.4
1596.43	18852.5
1597.47	18848.1
1598.52	18843.7
1599.56	18844.9
1600.6	18834.8
1601.65	18805.1
1602.69	18780.4
1603.73	18755.2
1604.78	18730.2
1605.82	18709.6
1606.86	18693.4
1607.91	18680.4
1608.95	18670
1609.99	18662.8
1611.03	18658.8
1612.08	18658.1
1613.12	18659.9
1614.16	18654.1
1615.2	18645.8
1616.24	18634.1
1617.28	18618.9
1618.32	18600.3
1619.36	18578.2
1620.41	18552.9
1621.45	18524.5
1622.49	18493.6
1623.53	18483.3
1624.57	18482
1625.61	18475.8
1626.65	18469.1
1627.69	18459.3
1628.73	18445.8
1629.76	18429.8
1630.8	18411.5
1631.84	18390.9
1632.88	18368.1
1633.92	18344.3
1634.96	18325.2
1636	18317
1637.03	18330.9
1638.07	18350.4
1639.11	18358.1
1640.15	18352.7
1641.19	18335.5
1642.22	18317
1643.26	18275.6
1644.3	18254.3
1645.33	18233.4
1646.37	18223
1647.41	18231.4
1648.44	18241.9
1649.48	18241
1650.52	18239.8
1651.55	18230.1
1652.59	18213.2
1653.62	18187.9
1654.66	18161.8
1655.69	18135.1
1656.73	18120.1
1657.76	18123.7
1658.8	18122.7
1659.83	18121.5
1660.87	18119.1
1661.9	18115.5
1662.93	18110.6
1663.97	18105.1
1665	18100.4
1666.04	18100.1
1667.07	18102.4
1668.1	18106.2
1669.14	18099
1670.17	18091
1671.2	18079.9
1672.23	18066
1673.27	18049.1
1674.3	18029
1675.33	18006.3
1676.36	17985.6
1677.39	17975.9
1678.43	17972.4
1679.46	17974.8
1680.49	17978.1
1681.52	17982.8
1682.55	17988.1
1683.58	17992.6
1684.61	17995
1685.64	17994
1686.67	17991.5
1687.7	17971.7
1688.73	17945.6
1689.76	17867.6
1690.79	17894.2
1691.82	17933
1692.85	17919.9
1693.88	17897
1694.91	17869
1695.94	17843.9
1696.97	17828.9
1698	17816.3
1699.02	17807.4
1700.05	17802.1
1701.08	17801.1
1702.11	17803.8
1703.14	17810.7
1704.16	17814.5
1705.19	17796.6
1706.22	17773.9
1707.25	17745.1
1708.27	17725.1
1709.3	17705.4
1710.33	17690.5
1711.35	17678.9
1712.38	17670
1713.41	17663.2
1714.43	17652.6
1715.46	17625.9
1716.48	17589.4
1717.51	17564.1
1718.53	17559.8
1719.56	17588
1720.58	17592
1721.61	17568.1
1722.63	17554.7
1723.66	17539.8
1724.68	17525.7
1725.71	17516.4
1726.73	17506.5
1727.75	17496
1728.78	17484.8
1729.8	17473
1730.83	17460.4
1731.85	17446.5
1732.87	17432.1
1733.89	17415
1734.92	17403.8
1735.94	17390
1736.96	17372.1
1737.98	17354.6
1739.01	17337.5
1740.03	17321
1741.05	17305.5
1742.07	17290.8
1743.09	17278.7
1744.12	17267.1
1745.14	17256.7
1746.16	17247
1747.18	17235.8
1748.2	17222.9
1749.22	17208.3
1750.24	17191.4
1751.26	17178.9
1752.28	17180.1
1753.3	17194.4
1754.32	17211.6
1755.34	17219.5
1756.36	17212.9
1757.38	17201
1758.4	17176.1
1759.42	17135
1760.44	17109.6
1761.45	17082
1762.47	17083
1763.49	17094.9
1764.51	17111.2
1765.53	17122.3
1766.55	17125.9
1767.56	17125.6
1768.58	17120.5
1769.6	17109.9
1770.61	17093.9
1771.63	17073.2
1772.65	17049
1773.67	17024.1
1774.68	17006.6
1775.7	16993.8
1776.72	16986
1777.73	16980.5
1778.75	16974.8
1779.76	16965.9
1780.78	16948.3
1781.79	16932.6
1782.81	16916.8
1783.83	16899.7
1784.84	16888.9
1785.85	16889.5
1786.87	16895.6
1787.88	16900.8
1788.9	16905.7
1789.91	16907.8
1790.93	16899
1791.94	16890.5
1792.95	16881
1793.97	16871.7
1794.98	16859.1
1796	16844.4
1797.01	16825.9
1798.02	16804
1799.03	16774.4
1800.05	16749.7
1801.06	16738.6
1802.07	16735.8
1803.08	16731.9
1804.1	16726.1
1805.11	16719.6
1806.12	16711.9
1807.13	16701.7
1808.14	16689
1809.15	16672.6
1810.17	16651.8
1811.18	16627.7
1812.19	16603.2
1813.2	16579.5
1814.21	16557.9
1815.22	16546.4
1816.23	16534.9
1817.24	16523.5
1818.25	16511.8
1819.26	16499.5
1820.27	16485.9
1821.28	16472.9
1822.29	16459.4
1823.3	16445.2
1824.3	16429.9
1825.31	16413.3
1826.32	16393.9
1827.33	16373.6
1828.34	16347.5
1829.35	16320.1
1830.35	16298.6
1831.36	16284.3
1832.37	16284.7
1833.38	16285.1
1834.38	16288.3
1835.39	16291.8
1836.4	16294.3
1837.41	16274.9
1838.41	16234.8
1839.42	16256.8
1840.43	16250.8
1841.43	16240.2
1842.44	16203.1
1843.44	16165.9
1844.45	16134.1
1845.46	16130.2
1846.46	16126.6
1847.47	16125.8
1848.47	16128.3
1849.48	16136.5
1850.48	16129
1851.49	16115.2
1852.49	16089.5
1853.49	16067.3
1854.5	16058.8
1855.5	16062.6
1856.51	16056.2
1857.51	16047.5
1858.51	16038.1
1859.52	16027.4
1860.52	16016.1
1861.52	16003.3
1862.53	15989.2
1863.53	15973.5
1864.53	15957
1865.54	15938.1
1866.54	15915.4
1867.54	15888.9
1868.54	15862.5
1869.54	15839.1
1870.55	15822.2
1871.55	15823.7
1872.55	15838.8
1873.55	15838
1874.55	15833.8
1875.55	15822.9
1876.55	15805.6
1877.55	15780.6
1878.55	15755.1
1879.55	15727.4
1880.56	15700.6
1881.55	15680
1882.56	15661.9
1883.55	15647.2
1884.55	15637.3
1885.55	15632.2
1886.55	15631.4
1887.55	15634.5
1888.55	15640.9
1889.55	15649.6
1890.55	15653.9
1891.55	15656.7
1892.55	15652.1
1893.54	15639.1
1894.54	15623.2
1895.54	15604.2
1896.54	15583
1897.54	15567.1
1898.53	15555
1899.53	15545.7
1900.53	15539.6
1901.52	15534.6
1902.52	15532.7
1903.52	15533.5
1904.51	15538.1
1905.51	15528.8
1906.51	15497.5
1907.5	15464.3
1908.5	15429.8
1909.49	15403.2
1910.49	15391.4
1911.49	15374.3
1912.48	15373.9
1913.48	15373.3
1914.47	15364.7
1915.46	15343
1916.46	15326.7
1917.45	15297.6
1918.45	15274.2
1919.44	15266.3
1920.44	15265.2
1921.43	15268.6
1922.43	15264
1923.42	15262.3
1924.41	15257.3
1925.41	15243.4
1926.4	15218.4
1927.39	15196.2
1928.38	15198.5
1929.38	15203.5
1930.37	15185
1931.36	15161.9
1932.35	15130.2
1933.35	15095.2
1934.34	15073.5
1935.33	15054.9
1936.32	15056.5
1937.31	15044.1
1938.3	15031.8
1939.29	15017.8
1940.29	15002.9
1941.28	14986.6
1942.27	14970.9
1943.26	14956.2
1944.25	14945.9
1945.24	14936.5
1946.23	14928.5
1947.22	14921.3
1948.21	14914.4
1949.2	14907.8
1950.19	14899.9
1951.18	14891.3
1952.17	14883.9
1953.16	14875.9
1954.14	14867.7
1955.13	14858.2
1956.12	14843.7
1957.11	14828.8
1958.1	14811.9
1959.09	14793.2
1960.07	14772.7
1961.06	14750.6
1962.05	14729.6
1963.04	14710.4
1964.02	14693.2
1965.01	14678.3
1966	14665.7
1966.99	14655.5
1967.97	14647.7
1968.96	14642.1
1969.95	14638.6
1970.93	14638.1
1971.92	14636.9
1972.9	14625
1973.89	14600.2
1974.88	14586.9
1975.86	14573.3
1976.85	14556.5
1977.83	14540.3
1978.82	14520.7
1979.8	14501.2
1980.79	14482.3
1981.77	14472.5
1982.76	14467
1983.74	14457.8
1984.72	14446.8
1985.71	14432.7
1986.69	14416.3
1987.67	14399.2
1988.66	14385
1989.64	14375
1990.62	14369.2
1991.61	14371.7
1992.59	14367.8
1993.57	14357.9
1994.56	14343.7
1995.54	14328.2
1996.52	14312.8
1997.5	14298.8
1998.49	14286.3
1999.47	14275.1
2000.45	14265.3
2001.43	14256.6
2002.41	14250.6
2003.39	14245.4
2004.38	14236.3
2005.36	14222.7
2006.34	14201.8
2007.32	14176.4
2008.3	14158.6
2009.28	14146.4
2010.26	14141.9
2011.24	14131.7
2012.22	14117.3
2013.2	14097.8
2014.18	14075.4
2015.16	14058.5
2016.14	14037.2
2017.12	14030.4
2018.1	14036.7
2019.07	14044.3
2020.05	14048.6
2021.03	14044.2
2022.01	14041.7
2022.99	14030.2
2023.97	14010.2
2024.95	13988.7
2025.92	13973.5
2026.9	13963
2027.88	13946
2028.86	13920.5
2029.83	13894.4
2030.81	13871.9
2031.79	13854.7
2032.76	13839.4
2033.74	13825.3
2034.72	13812.6
2035.69	13801.8
2036.67	13791.9
2037.65	13780.4
2038.62	13767.5
2039.6	13748.1
2040.57	13733.4
2041.55	13720
2042.52	13709.9
2043.5	13701.5
2044.47	13693.6
2045.45	13682.7
2046.42	13671.1
2047.4	13658.4
2048.37	13644.7
2049.35	13629.5
2050.32	13611.9
2051.29	13594
2052.27	13576.3
2053.24	13561.8
2054.21	13548.4
2055.19	13536.3
2056.16	13526.4
2057.13	13517.2
2058.11	13508.4
2059.08	13495.7
2060.05	13479.5
2061.02	13469
2062	13458.4
2062.97	13446.3
2063.94	13431.4
2064.91	13414.6
2065.89	13397.5
2066.86	13377.7
2067.83	13365.6
2068.8	13357.3
2069.77	13348.9
2070.74	13352.2
2071.71	13338
2072.68	13327
2073.65	13308.6
2074.62	13290
2075.59	13271.1
2076.56	13251
2077.53	13231.5
2078.5	13213.4
2079.47	13197
2080.44	13182.5
2081.41	13170.4
2082.38	13160
2083.35	13151.4
2084.32	13144.6
2085.29	13139.4
2086.26	13135.6
2087.23	13133
2088.19	13130.7
2089.16	13112.6
2090.13	13096.2
2091.1	13077.1
2092.07	13047.4
2093.03	13019.9
2094	13013.4
2094.97	13015.1
2095.94	13015.1
2096.9	13015.1
2097.87	13013.8
2098.84	13003.1
2099.8	12985.8
2100.77	12961.9
2101.74	12932
2102.7	12907.5
2103.67	12889.5
2104.63	12876.6
2105.6	12867.4
2106.56	12862.8
2107.53	12855.7
2108.49	12847
2109.46	12830
2110.42	12809.5
2111.39	12788.3
2112.35	12772.5
2113.32	12760.4
2114.28	12758.4
2115.25	12755.2
2116.21	12756.8
2117.17	12760.8
2118.14	12760.6
2119.1	12755.1
2120.07	12736.2
2121.03	12717.5
2121.99	12695.9
2122.96	12667.7
2123.92	12651.2
2124.88	12643.2
2125.84	12650
2126.81	12650.2
2127.77	12642.6
2128.73	12627.7
2129.69	12605.7
2130.65	12570.1
2131.62	12538.3
2132.58	12505.2
2133.54	12512.3
2134.5	12513.3
2135.46	12517.2
2136.42	12515.3
2137.38	12511.2
2138.34	12504.8
2139.3	12495
2140.26	12481.1
2141.22	12462.2
2142.18	12438.2
2143.14	12409
2144.1	12374.6
2145.06	12346.5
2146.02	12320.9
2146.98	12311.3
2147.94	12318
2148.9	12335.7
2149.86	12343.4
2150.82	12333.7
2151.78	12324.7
2152.74	12310.9
2153.69	12293.9
2154.65	12274.1
2155.61	12259
2156.57	12246.7
2157.53	12238
2158.48	12218.2
2159.44	12192.6
2160.4	12172
2161.36	12157.4
2162.31	12147.7
2163.27	12145.6
2164.23	12141.6
2165.18	12135.8
2166.14	12121.1
2167.1	12100.2
2168.05	12077.5
2169.01	12055.4
2169.96	12033.2
2170.92	12011.1
2171.88	11990.5
2172.83	11970.3
2173.79	11950.4
2174.74	11931
2175.7	11912.2
2176.65	11894
2177.6	11876.3
2178.56	11853
2179.51	11819.3
2180.47	11777.9
2181.42	11739.4
2182.38	11715.3
2183.33	11703.2
2184.28	11698.4
2185.24	11698
2186.19	11697.7
2187.14	11696.2
2188.1	11692
2189.05	11686.3
2190	11680
2190.96	11672.3
2191.91	11663.3
2192.86	11652.4
2193.81	11639.9
2194.76	11623.4
2195.72	11603.6
2196.67	11580.9
2197.62	11555.8
2198.57	11528.5
2199.52	11505.3
2200.47	11508.4
2201.43	11516.4
2202.38	11520.7
2203.33	11523.5
2204.28	11519
2205.23	11512.3
2206.18	11505
2207.13	11496.9
2208.08	11488
2209.03	11477.4
2209.98	11466.6
2210.93	11456.1
2211.88	11445.6
2212.83	11432.6
2213.78	11414.9
2214.73	11392.6
2215.67	11373.8
2216.62	11354.6
2217.57	11333.3
2218.52	11313.4
2219.47	11295.8
2220.42	11282.5
2221.37	11272.4
2222.31	11265.6
2223.26	11261.7
2224.21	11262.2
2225.16	11266.4
2226.1	11271.9
2227.05	11274.3
2228	11271.3
2228.94	11260.9
2229.89	11249
2230.84	11240
2231.78	11230.7
2232.73	11220.6
2233.68	11212.8
2234.62	11205.4
2235.57	11200
2236.51	11197.1
2237.46	11196.4
2238.41	11195.6
2239.35	11189.6
2240.3	11182.5
2241.24	11175
2242.19	11167.2
2243.13	11159.3
2244.07	11151.4
2245.02	11144.4
2245.96	11139.7
2246.91	11134.9
2247.85	11129.8
2248.8	11122.9
2249.74	11114.2
2250.68	11105.5
2251.63	11097.1
2252.57	11088.1
2253.51	11078.2
2254.46	11066.4
2255.4	11056
2256.34	11061.1
2257.28	11068.6
2258.23	11068.3
2259.17	11066.6
2260.11	11073.1
2261.05	11057.4
2262	11038.2
2262.94	11019.5
2263.88	11002.2
2264.82	10996
2265.76	10989
2266.7	10986.5
2267.64	10992.3
2268.58	10998.4
2269.53	11010.3
2270.47	11015.1
2271.41	11019.1
2272.35	11007.1
2273.29	10994.5
2274.23	10980.8
2275.17	10964.7
2276.11	10941.3
2277.05	10928.7
2277.99	10925.5
2278.93	10929.1
2279.86	10932.1
2280.8	10933.2
2281.74	10932.3
2282.68	10929.8
2283.62	10925.6
2284.56	10921
2285.5	10916.8
2286.44	10913.3
2287.37	10905.2
2288.31	10901.2
2289.25	10906.6
2290.19	10899
2291.12	10884.7
2292.06	10868.7
2293	10856.8
2293.94	10856.3
2294.87	10863.4
2295.81	10866.3
2296.75	10860.9
2297.68	10852.7
2298.62	10844.6
2299.55	10836.5
2300.49	10820.3
2301.43	10816.1
2302.36	10811.4
2303.3	10804.4
2304.23	10795
2305.17	10783.5
2306.1	10770.2
2307.04	10754.9
2307.98	10723.2
2308.91	10706
2309.84	10708.3
2310.78	10710.2
2311.71	10710.2
2312.65	10708.5
2313.58	10705.1
2314.52	10700.1
2315.45	10693.1
2316.38	10683.4
2317.32	10671.1
2317.72	10665.3
2318.66	10651.7
2319.6	10635.5
2320.54	10616.1
2321.48	10593.6
2322.41	10568.4
2323.35	10547.8
2324.29	10543.2
2325.23	10540
2326.16	10537.5
2327.1	10536.9
2328.04	10529.3
2328.97	10518.8
2329.91	10508.6
2330.85	10497.5
2331.78	10486.5
2332.72	10475.5
2333.66	10465.2
2334.59	10455.8
2335.53	10446.7
2336.46	10436.4
2337.4	10426
2338.33	10416
2339.27	10414
2340.2	10417.9
2341.14	10438.4
2342.07	10452.5
2343.01	10442.2
2343.94	10418.2
2344.88	10393.8
2345.81	10370.9
2346.75	10351.9
2347.68	10340.5
2348.61	10332.5
2349.55	10326.4
2350.48	10323.5
2351.41	10322.7
2352.35	10323.8
2353.28	10324.2
2354.21	10326.5
2355.15	10328.1
2356.08	10328.1
2357.01	10319.8
2357.94	10297.2
2358.88	10271.4
2359.81	10253.2
2360.74	10240.4
2361.67	10233.5
2362.6	10232.7
2363.54	10238.8
2364.47	10249.3
2365.4	10256.2
2366.33	10249.8
2367.26	10243.5
2368.19	10227
2369.12	10209.8
2370.05	10191.9
2370.98	10169.2
2371.91	10149.8
2372.84	10136.1
2373.77	10124.3
2374.7	10118.5
2375.63	10117.2
2376.56	10120.6
2377.49	10128.1
2378.42	10139.5
2379.35	10154
2380.28	10150.9
2381.21	10135.9
2382.14	10128.1
2383.07	10115.9
2384	10110.9
2384.92	10115.2
2385.85	10113.4
2386.78	10105
2387.71	10088
2388.64	10071.9
2389.56	10058
2390.49	10043.2
2391.42	10031.6
2392.35	10025.8
2393.27	10025.3
2394.2	10020.7
2395.13	10014.7
2396.05	10007.2
2396.98	9999.25
2397.91	9991.04
2398.83	9982.78
2399.76	9973.65
2400.69	9964.64
2401.61	9959.15
2402.54	9956.85
2403.46	9967.84
2404.39	9973.57
2405.31	9953.08
2406.24	9938.93
2407.17	9922.77
2408.09	9907.32
2409.01	9896.75
2409.94	9887.84
2410.86	9879.62
2411.79	9872.14
2412.71	9865.37
2413.64	9859.14
2414.56	9851.29
2415.49	9844.76
2416.41	9838.29
2417.33	9832.04
2418.26	9825.2
2419.18	9814.28
2420.1	9800.33
2421.03	9789.43
2421.95	9777.72
2422.87	9773.02
2423.79	9767.18
2424.72	9764.63
2425.64	9762.18
2426.56	9762.88
2427.48	9753.21
2428.41	9726.46
2429.33	9697.21
2430.25	9660.03
2431.17	9618.85
2432.09	9660.16
2433.01	9661.13
2433.93	9655.87
2434.86	9644.27
2435.78	9635.09
2436.7	9618.66
2437.62	9603.45
2438.54	9600.97
2439.46	9610.11
2440.38	9599.05
2441.3	9586.39
2442.22	9570.64
2443.14	9550.82
2444.06	9528.89
2444.98	9511.63
2445.9	9512.35
2446.82	9507.94
2447.73	9503.99
2448.65	9501
2449.57	9493.08
2450.49	9484.05
2451.41	9473.08
2452.33	9460.08
2453.25	9445.21
2454.17	9428.34
2455.08	9409.7
2456	9388.41
2456.92	9359.27
2457.84	9353.63
2458.75	9356.56
2459.67	9368.1
2460.59	9386.43
2461.51	9398.18
2462.42	9400.62
2463.34	9366.62
2464.26	9353.1
2465.17	9338.55
2466.09	9323.25
2467	9309.55
2467.92	9298.4
2468.84	9290.23
2469.75	9284.54
2470.67	9280.16
2471.58	9273.85
2472.5	9259.98
2473.42	9249.31
2474.33	9241.25
2475.25	9235.68
2476.16	9231.66
2477.08	9231.25
2477.99	9231.43
2478.9	9229.86
2479.82	9225.04
2480.73	9218.29
2481.65	9210.05
2482.56	9200.5
2483.47	9192.41
2484.39	9184.9
2485.3	9178.45
2486.22	9173.96
2487.13	9171.37
2488.04	9170.95
2488.96	9168.72
2489.87	9167.62
2490.78	9166.27
2491.69	9162.02
2492.61	9154.91
2493.52	9145.06
2494.43	9132.54
2495.34	9121.51
2496.25	9111.28
2497.17	9101.4
2498.08	9095.48
2498.99	9093.04
2499.9	9095.88
2500.81	9101.1
2501.72	9099.98
2502.63	9086.69
2503.55	9064.86
2504.46	9048.94
2505.37	9043.47
2506.28	9033.99
2507.19	9036.9
2508.1	9040.07
2509.01	9044.85
2509.92	9035.21
2510.83	9008.71
2511.74	8982.33
2512.65	8962.48
2513.56	8949.41
2514.47	8942.47
2515.37	8936.62
2516.28	8951.87
2517.19	8968.81
2518.1	8984.11
2519.01	8981.06
2519.92	8976.09
2520.83	8970.23
2521.73	8963.38
2522.64	8939.32
2523.55	8929.61
2524.46	8924.76
2525.37	8924.44
2526.27	8931.41
2527.18	8932.18
2528.09	8932.09
2529	8925.06
2529.9	8917.94
2530.81	8908.13
2531.72	8895.73
2532.62	8883.03
2533.53	8871
2534.44	8862.05
2535.34	8853.88
2536.25	8847.96
2537.15	8843.78
2538.06	8841.15
2538.96	8839.75
2539.87	8839.7
2540.78	8840.63
2541.68	8842.15
2542.59	8821.32
2543.49	8800.34
2544.4	8778.61
2545.3	8759.76
2546.21	8741.27
2547.11	8722.63
2548.01	8705.69
2548.92	8689.57
2549.82	8674.96
2550.73	8662.2
2551.63	8653.5
2552.53	8673.94
2553.44	8676.18
2554.34	8673.67
2555.24	8666.43
2556.15	8655.61
2557.05	8643.78
2557.95	8631.9
2558.86	8619.6
2559.76	8615.11
2560.66	8610.14
2561.56	8604.34
2562.46	8597.09
2563.37	8587.8
2564.27	8576
2565.17	8565
2566.07	8562.59
2566.97	8563.03
2567.88	8556.1
2568.78	8546.71
2569.68	8541.8
2570.58	8523.26
2571.48	8484.55
2572.38	8464.73
2573.28	8452.25
2574.18	8445.61
2575.08	8445.41
2575.98	8448.34
2576.88	8444.37
2577.78	8436.51
2578.68	8427.99
2579.58	8409.25
2580.48	8388.87
2581.38	8376.15
2582.28	8360.22
2583.18	8356.15
2584.08	8354.64
2584.98	8353.61
2585.88	8350.3
2586.77	8346.3
2587.67	8340.6
2588.57	8334.78
2589.47	8327.17
2590.37	8318.04
2591.27	8305.49
2592.16	8280.38
2593.06	8256.05
2593.96	8242.53
2594.86	8236.21
2595.75	8240.85
2596.65	8240.67
2597.55	8242.95
2598.45	8237.68
2599.34	8223.68
2600.24	8209.92
2601.13	8195.29
2602.03	8185.7
2602.93	8178.39
2603.82	8172.86
2604.72	8169.45
2605.62	8168.03
2606.51	8168.67
2607.41	8171.61
2608.3	8176.38
2609.2	8180.85
2610.09	8183.43
2610.99	8179.09
2611.88	8173.99
2612.78	8165.1
2613.67	8144.82
2614.57	8119.59
2615.46	8090.29
2616.36	8071.21
2617.25	8050.03
2618.14	8042.86
2619.04	8037.55
2619.93	8037.07
2620.83	8039.85
2621.72	8043.32
2622.61	8043.47
2623.5	8028.69
2624.4	8019.04
2625.29	8019.64
2626.18	8022.94
2627.08	8027.23
2627.97	8029.54
2628.86	8030
2629.75	8012.77
2630.65	8009.34
2631.54	8004.95
2632.43	8001.44
2633.32	8000.35
2634.21	8000.48
2635.11	7989.9
2636	7973.67
2636.89	7949.29
2637.78	7921.77
2638.67	7897.8
2639.56	7874.82
2640.45	7853.68
2641.34	7832.08
2642.23	7825.35
2643.12	7822.91
2644.01	7821.77
2644.9	7820.28
2645.79	7817.3
2646.68	7810.38
2647.57	7802.48
2648.46	7793.06
2649.35	7782.12
2650.24	7769.43
2651.13	7755.38
2652.02	7741.18
2652.91	7729.28
2653.8	7720.68
2654.69	7713.03
2655.58	7701.67
2656.46	7690.63
2657.35	7680.12
2658.24	7669.87
2659.13	7660
2660.02	7650.91
2660.9	7642.98
2661.79	7641.46
2662.68	7639.66
2663.57	7636.68
2664.45	7623.17
2665.34	7607.95
2666.23	7597.9
2667.11	7589.41
2668	7582.01
2668.89	7575.43
2669.77	7568.33
2670.66	7561.98
2671.55	7557.14
2672.43	7553.65
2673.32	7553.2
2674.21	7553.68
2675.09	7564.78
2675.98	7568.43
2676.86	7568.79
2677.75	7564.73
2678.63	7541.87
2679.52	7519.71
2680.4	7499.49
2681.29	7480.86
2682.17	7464.08
2683.06	7449.75
2683.94	7437.26
2684.82	7426.49
2685.71	7417.81
2686.59	7411.25
2687.48	7408.27
2688.36	7416.85
2689.24	7432.45
2690.13	7430.32
2691.01	7401.91
2691.89	7390.78
2692.78	7382.87
2693.66	7385.19
2694.54	7380
2695.43	7368.85
2696.31	7352.84
2697.19	7322.26
2698.07	7302.59
2698.96	7291.75
2699.84	7279.26
2700.72	7276.46
2701.6	7289.04
2702.48	7289.76
2703.36	7268.15
2704.25	7239.63
2705.13	7224.58
2706.01	7217.15
2706.89	7228.22
2707.77	7262.04
2708.65	7256.28
2709.53	7253.68
2710.41	7243.48
2711.29	7229.73
2712.17	7212.46
2713.05	7192.75
2713.93	7183.5
2714.81	7171.69
2715.69	7160.68
2716.57	7168.58
2717.45	7177.32
2718.33	7181.98
2719.21	7157.99
2720.09	7130.29
2720.97	7098.54
2721.85	7085.57
2722.73	7108.8
2723.61	7149.09
2724.48	7130.07
2725.36	7108.57
2726.24	7068.52
2727.12	7065.89
2728	7053.84
2728.88	7043.71
2729.75	7035.71
2730.63	7030.09
2731.51	7027.03
2732.39	7025.96
2733.26	7027.13
2734.14	7030.43
2735.02	7035.82
2735.89	7039.29
2736.77	7030.69
2737.65	7026.13
2738.52	7023.67
2739.4	7016.73
2740.28	7014.35
2741.15	7007.03
2742.03	7016.34
2742.9	7024.33
2743.78	7017.84
2744.65	6997.52
2745.53	6962.72
2746.41	6945.68
2747.28	6948.92
2748.16	6952.29
2749.03	6958.19
2749.91	6964.88
2750.78	6967.85
2751.66	6958.19
2752.53	6948.69
2753.4	6937.55
2754.28	6924.57
2755.15	6911.85
2756.02	6908.04
2756.9	6904.33
2757.77	6900.47
2758.65	6896.85
2759.52	6890.77
2760.39	6877.24
2761.27	6860.87
2762.14	6844.61
2763.01	6827.97
2763.88	6816.79
2764.76	6810.13
2765.63	6807.92
2766.5	6816.09
2767.37	6827.77
2768.25	6834.86
2769.12	6836.52
2769.99	6832.29
2770.86	6822.19
2771.73	6805.06
2772.61	6782.99
2773.48	6761.53
2774.35	6739.48
2775.22	6731.97
2776.09	6732.85
2776.96	6726.6
2777.83	6721.4
2778.7	6716.47
2779.57	6712.23
2780.44	6709.18
2781.31	6705.18
2782.18	6702.69
2783.05	6698.26
2783.92	6688.5
2784.79	6677.71
2785.66	6669.21
2786.53	6662.44
2787.4	6656.77
2788.27	6650.97
2789.14	6646.74
2790.01	6637.72
2790.88	6628.84
2791.75	6613.53
2792.62	6597.59
2793.48	6592.73
2794.35	6593.97
2795.22	6597.07
2796.09	6601.51
2796.96	6601.21
2797.82	6600.53
2798.69	6598.81
2799.56	6595.06
2800.43	6589.85
2801.29	6582.69
2802.16	6573.3
2803.03	6560.08
2803.9	6545.88
2804.76	6536.67
2805.63	6526.99
2806.5	6511.52
2807.36	6520.35
2808.23	6523.75
2809.09	6520.58
2809.96	6511.05
2810.83	6492.24
2811.69	6461.56
2812.56	6437.92
2813.42	6448.33
2814.29	6449.87
2815.15	6455.7
2816.02	6463.59
2816.88	6467.38
2817.75	6467.1
2818.61	6465.46
2819.48	6456.16
2820.34	6445
2821.21	6436.24
2822.07	6430.44
2822.94	6423.31
2823.8	6414.97
2824.66	6406.68
2825.53	6397.81
2826.39	6389.21
2827.26	6381.54
2828.12	6374.45
2828.98	6372.83
2829.85	6372.37
2830.71	6372.02
2831.57	6370.83
2832.43	6361.36
2833.3	6348.01
2834.16	6346.71
2835.02	6349.13
2835.88	6351.44
2836.75	6349.51
2837.61	6336.99
2838.47	6326.4
2839.33	6314.91
2840.19	6302.57
2841.06	6288.28
2841.92	6276.54
2842.78	6272.95
2843.64	6270.71
2844.5	6270.45
2845.36	6270.47
2846.22	6266.79
2847.08	6262.95
2847.94	6259.1
2848.81	6254.35
2849.67	6248.93
2850.53	6242.73
2851.39	6235.88
2852.25	6228.04
2853.11	6219.4
2853.97	6209.9
2854.82	6199.46
2855.68	6188.33
2856.54	6183.6
2857.4	6183.09
2858.26	6179.68
2859.12	6176.23
2859.98	6169.4
2860.84	6160.67
2861.7	6154.9
2862.56	6147.75
2863.41	6138.99
2864.27	6139.63
2865.13	6140.56
2865.99	6148.52
2866.85	6152.98
2867.7	6150.64
2868.56	6142.56
2869.42	6128.67
2870.28	6108.82
2871.13	6088.59
2871.99	6069.77
2872.85	6064.41
2873.7	6069.52
2874.56	6065.83
2875.42	6063.5
2876.27	6058.7
2877.13	6053.14
2877.99	6047.03
2878.84	6042.6
2879.7	6039.37
2880.56	6041.83
2881.41	6045.89
2882.27	6047.44
2883.12	6039
2883.98	6033.49
2884.83	6031.35
2885.69	6030.12
2886.54	6026.63
2887.4	6021.13
2888.25	6014.35
2889.11	6006.61
2889.96	5997.14
2890.82	5985.92
2891.67	5972.55
2892.52	5956.9
2893.38	5939.77
2894.23	5913.46
2895.09	5892.76
2895.94	5892.4
2896.79	5889.73
2897.65	5929.92
2898.5	5928.35
2899.35	5923.39
2900.21	5915.38
2901.06	5904.03
2901.91	5889.43
2902.76	5872.69
2903.62	5854.27
2904.47	5844.5
2905.32	5834.47
2906.17	5833.97
2907.03	5831.15
2907.88	5838.17
2908.73	5836.54
2909.58	5831.9
2910.43	5825.09
2911.28	5818.93
2912.14	5811.82
2912.99	5806.21
2913.84	5804.45
2914.69	5805.11
2915.54	5802.47
2916.39	5795.29
2917.24	5774.31
2918.09	5765.73
2918.94	5756.94
2919.79	5755.99
2920.64	5755.81
2921.49	5757.32
2922.34	5762.46
2923.19	5764.06
2924.04	5762.72
2924.89	5756.02
2925.74	5743.79
2926.59	5728.7
2927.44	5711.5
2928.29	5699.3
2929.14	5689.91
2929.98	5681.95
2930.83	5676.27
2931.68	5672.39
2932.53	5670.31
2933.38	5669.12
2934.23	5654.68
2935.07	5630.66
2935.92	5614.18
2936.77	5609.81
2937.62	5627.02
2938.47	5621.45
2939.31	5622.04
2940.16	5612.86
2941.01	5583.96
2941.85	5589.69
2942.7	5597.04
2943.55	5600.59
2944.39	5600.36
2945.24	5596.29
2946.09	5587.64
2946.93	5575.32
2947.78	5561.56
2948.63	5546.33
2949.47	5531.3
2950.32	5533.58
2951.16	5538.91
2952.01	5537.95
2952.85	5532.96
2953.7	5517.81
2954.55	5498.27
2955.39	5496.65
2956.24	5495.5
2957.08	5490.4
2957.92	5487.25
2958.77	5486.92
2959.61	5479.84
2960.46	5474.62
2961.3	5473.56
2962.15	5472.37
2962.99	5472.54
2963.83	5473.81
2964.68	5476.41
2965.52	5470.79
2966.37	5449.99
2967.21	5433.4
2968.05	5422.55
2968.9	5412.14
2969.74	5411.68
2970.58	5408.53
2971.42	5410.6
2972.27	5409.96
2973.11	5402.06
2973.95	5394.95
2974.79	5382.89
2975.64	5376.1
2976.48	5369.49
2977.32	5364.17
2978.16	5359.45
2979	5355.61
2979.85	5352.6
2980.69	5349.51
2981.53	5346.08
2982.37	5339.02
2983.21	5331.35
2984.05	5323.84
2984.89	5321.67
2985.73	5325.35
2986.57	5331.4
2987.41	5332.87
2988.25	5331.53
2989.1	5329.16
2989.94	5314.61
2990.77	5303.81
2991.62	5296.56
2992.45	5290.67
2993.29	5290.31
2994.13	5282.91
2994.97	5274.97
2995.81	5266.88
2996.65	5258.1
2997.49	5250.19
2998.33	5240.66
2999.17	5257.54
