200.833	16273.7
202.102	16327.6
203.371	16372
204.639	16366
205.907	16374.4
207.175	16384.6
208.442	16395
209.71	16405.3
210.977	16413.3
212.244	16416.7
213.511	16414.3
214.777	16413.8
216.042	16418.7
217.309	16430.1
218.575	16449.2
219.84	16475.4
221.106	16509.7
222.371	16550.7
223.635	16599.5
224.9	16656.3
226.165	16720.4
227.429	16712.9
228.694	16749.2
229.956	16781.8
231.22	16812.1
232.484	16841
233.747	16884.3
235.011	16920.3
236.272	16948.9
237.535	16970.4
238.798	16985.2
240.06	17008.3
241.321	17034.1
242.583	17059.4
243.845	17087.7
245.105	17118.1
246.367	17147.1
247.628	17176.2
248.888	17165.7
250.149	17147.4
251.409	17107.5
252.67	17120.8
253.928	17139.8
255.189	17166.5
256.447	17198.2
257.707	17231.1
258.966	17245.4
260.224	17269
261.483	17268.6
262.742	17263.5
263.999	17268
265.257	17275.5
266.514	17287.7
267.772	17303
269.028	17327.1
270.286	17353.6
271.543	17380.6
272.799	17409
274.056	17426
275.311	17440.8
276.568	17463.1
277.823	17486.4
279.079	17510.8
280.333	17532.2
281.589	17554.7
282.843	17573
284.099	17589.9
285.352	17579.1
286.607	17577.1
287.86	17589.3
289.114	17606
290.368	17636.6
291.621	17667.1
292.875	17694.6
294.127	17717.7
295.38	17738.5
296.632	17757.8
297.884	17774
299.137	17787.5
300.388	17798.2
301.641	17806.4
302.891	17811.2
304.142	17809.8
305.394	17804.4
306.644	17803.9
307.894	17807.4
309.146	17814.7
310.395	17827.9
311.645	17838.9
312.895	17848.2
314.144	17855.6
315.393	17861.6
316.642	17866
317.892	17873.7
319.14	17894.2
320.388	17952
321.637	17968.8
322.885	17965.9
324.132	17935.9
325.38	17945.4
326.628	17965.7
327.875	17993.9
329.122	18029
330.368	18070
331.614	18118
332.862	18169.2
334.108	18204.9
335.353	18215.1
336.599	18211.1
337.844	18196.6
339.089	18174.5
340.335	18168.1
341.58	18169.6
342.824	18188.7
344.068	18243.3
345.312	18281.6
346.556	18311.8
347.8	18331.4
349.043	18341
350.286	18336.3
351.53	18317.7
352.774	18287.6
354.016	18254.3
355.259	18219.6
356.501	18209.3
357.743	18201.7
358.985	18225
360.227	18244.1
361.468	18269.2
362.709	18291.6
363.95	18306.8
365.191	18332.1
366.432	18338.5
367.672	18340.2
368.912	18331.8
370.152	18321.3
371.392	18319.5
372.632	18314.6
373.871	18326
375.11	18334.7
376.348	18357.6
377.587	18389.8
378.825	18398.3
380.064	18406.3
381.302	18412.7
382.54	18428.1
383.778	18461.3
385.016	18475.9
386.253	18493.9
387.489	18489.6
388.726	18482
389.963	18476.5
391.199	18470.6
392.436	18481.9
393.672	18504.6
394.907	18542.2
396.142	18576.5
397.378	18608.1
398.614	18620.2
399.849	18617
401.082	18621.6
402.317	18613
403.552	18606
404.786	18595.1
406.019	18612.6
407.253	18635.2
408.487	18657.5
409.721	18667.5
410.953	18664.7
412.186	18663.9
413.419	18661.7
414.651	18649.6
415.883	18648.9
417.116	18654.9
418.347	18674.1
419.579	18688.5
420.811	18687.9
422.041	18686.3
423.272	18683.9
424.504	18685.6
425.733	18688.4
426.964	18692.2
428.194	18697.7
429.424	18704.5
430.654	18712.9
431.883	18722.8
433.113	18734.1
434.341	18746.9
435.571	18760.8
436.799	18775.7
438.028	18787.4
439.257	18791.9
440.484	18790.3
441.713	18786.1
442.94	18781.3
444.168	18779.6
445.394	18782.1
446.622	18801.7
447.848	18823.1
449.076	18839.2
450.301	18853.4
451.528	18864.1
452.754	18870.9
453.979	18874.8
455.205	18875.6
456.43	18873.6
457.656	18868.8
458.88	18869.4
460.106	18877.6
461.33	18888.8
462.554	18904.9
463.779	18920.8
465.002	18925.1
466.225	18926.3
467.45	18925.3
468.672	18921.9
469.895	18916.7
471.119	18910.1
472.341	18903
473.563	18894.3
474.786	18884.6
476.008	18874.2
477.229	18864.3
478.452	18858.4
479.673	18864.6
480.894	18852.6
482.115	18813.2
483.337	18767.7
484.557	18836.1
485.777	18836.8
486.997	18833
488.218	18823.8
489.438	18810.1
490.657	18790.8
491.876	18776.7
493.096	18770.7
494.315	18773.8
495.533	18783.1
496.752	18798.5
497.97	18813.1
499.188	18826.4
500.407	18829.5
501.625	18815.1
502.842	18799.9
504.059	18790.4
505.276	18789.3
506.493	18788.8
507.71	18800.6
508.926	18813.2
510.142	18830.4
511.358	18843.5
512.575	18854.6
513.791	18868.4
515.006	18880.7
516.222	18893.4
517.437	18905.1
518.651	18915.7
519.866	18921.4
521.081	18928.8
522.295	18946.9
523.509	18967.1
524.723	18983
525.937	18997.5
527.15	19003.4
528.363	19000.7
529.576	18983.4
530.789	18940.6
532.002	18893.4
533.215	18896
534.426	18919.8
535.638	18965.5
536.85	19036.2
538.061	19056.2
539.273	19066.8
540.484	19071.3
541.695	19067.8
542.906	19055.8
544.117	19037.2
545.327	19019.2
546.537	19000.2
547.747	18987.8
548.957	18997.5
550.167	19022.8
551.377	19033.3
552.585	19031.6
553.794	19012.4
555.003	18999.4
556.212	18993.9
557.421	18989
558.628	18983.9
559.836	18981.1
561.044	18978.8
562.252	18980
563.458	18981.6
564.666	18986.9
565.873	18992.4
567.08	18999.3
568.286	19006.3
569.493	19010.3
570.699	19006.9
571.904	18996.5
573.111	18987.6
574.317	18979.4
575.521	18980.2
576.727	18988.3
577.932	18999.3
579.136	19012.3
580.341	19025.6
581.544	19036.3
582.749	19046.3
583.954	19057.5
585.156	19067.5
586.361	19075.2
587.563	19075.7
588.767	19057.3
589.97	19045.4
591.172	19040.7
592.375	19039.6
593.577	19042.1
594.78	19044.3
595.981	19046.1
597.183	19046.7
598.384	19043.6
599.586	19038.5
600.786	19032.9
601.988	19027.3
603.188	19022.6
604.389	19017.2
605.589	19013
606.79	19009.4
607.989	19004.2
609.188	18998.2
610.389	18990
611.587	18979.6
612.787	18967
613.986	18951.8
615.184	18907.1
616.383	18938.5
617.581	18922.5
618.78	18894.5
619.977	18870.6
621.174	18840.6
622.373	18815.6
623.57	18810.6
624.766	18835.1
625.964	18890.9
627.16	18851.5
628.356	18821.4
629.554	18801.3
630.749	18783.9
631.945	18768
633.14	18754.4
634.337	18742.6
635.532	18736
636.726	18731.4
637.921	18728.5
639.117	18727.4
640.311	18725
641.505	18728.7
642.699	18737.6
643.892	18746.6
645.087	18755.5
646.28	18761.8
647.473	18759.3
648.666	18752
649.859	18739
651.051	18718.6
652.245	18699.7
653.437	18695.7
654.629	18714.9
655.821	18735.1
657.012	18756.4
658.204	18773.2
659.395	18782.8
660.586	18782.4
661.777	18773.1
662.967	18763.3
664.158	18760.2
665.349	18758.7
666.539	18759.4
667.729	18760.9
668.919	18764
670.109	18768.4
671.298	18774
672.487	18779.7
673.676	18788.8
674.865	18797.2
676.053	18804
677.242	18810.3
678.43	18809.5
679.616	18808.8
680.804	18806.9
681.992	18805.7
683.179	18805.6
684.366	18803.2
685.554	18800.5
686.74	18796.2
687.927	18788.3
689.114	18779
690.3	18768.1
691.486	18756.8
692.671	18745.8
693.856	18736.5
695.042	18725.6
696.227	18714.3
697.413	18702.4
698.598	18690.6
699.781	18678.7
700.966	18666.7
702.15	18654.3
703.334	18642.1
704.518	18629.7
705.701	18617.4
706.885	18603.7
708.068	18613.8
709.252	18626.3
710.433	18639
711.616	18637
712.799	18617.6
713.98	18579.4
715.163	18572.4
716.345	18566.7
717.527	18561.2
718.707	18563
719.889	18589.3
721.071	18586.1
722.25	18578
723.432	18556
724.611	18552.2
725.792	18586.2
726.972	18621.9
728.151	18648.6
729.332	18626.4
730.512	18563.5
731.69	18539.2
732.87	18571.4
734.048	18601.3
735.227	18629.9
736.405	18658.2
737.584	18673.6
738.761	18651.6
739.94	18648.5
741.117	18639
742.295	18632.8
743.471	18630.8
744.649	18633.1
745.825	18639.3
747.003	18649.4
748.179	18662.4
749.356	18686.1
750.531	18700.2
751.708	18703.2
752.883	18687.5
754.059	18689.5
755.234	18690.3
756.409	18696.5
757.585	18706.4
758.759	18699.2
759.934	18680.2
761.108	18668.5
762.282	18649.2
763.456	18642.1
764.63	18627.7
765.803	18638.1
766.977	18646.4
768.15	18655.4
769.323	18658.5
770.496	18650.1
771.668	18633.4
772.841	18610.9
774.014	18581.5
775.185	18547.6
776.357	18512.4
777.528	18489.1
778.701	18471.2
779.872	18468.5
781.042	18467.2
782.213	18465.5
783.383	18460
784.555	18454.8
785.725	18445.7
786.895	18435.7
788.064	18423.9
789.234	18410.8
790.404	18397.7
791.573	18385.7
792.742	18378.1
793.911	18372.2
795.08	18368
796.248	18365.8
797.416	18365.4
798.584	18366.2
799.753	18367.7
800.921	18369.7
802.088	18371.8
803.256	18374.2
804.423	18377.2
805.59	18381
806.756	18385.8
807.923	18392.5
809.089	18400.2
810.256	18413.1
811.422	18366.5
812.587	18353.2
813.753	18339.1
814.918	18338.4
816.084	18336.8
817.249	18357.9
818.414	18382.9
819.578	18393.8
820.743	18397.3
821.907	18362.5
823.072	18333
824.236	18346.1
825.399	18359.4
826.562	18407.2
827.725	18358.7
828.889	18364.8
830.052	18381.7
831.215	18413
832.377	18441
833.54	18457.4
834.701	18464
835.863	18457.5
837.025	18450.2
838.187	18440.8
839.349	18429.2
840.51	18415.4
841.67	18399.6
842.831	18380.3
843.992	18359.7
845.153	18339.4
846.312	18327.3
847.473	18323.2
848.633	18326.4
849.793	18337
850.951	18354.4
852.111	18359.5
853.27	18350.7
854.428	18330.8
855.588	18310.5
856.747	18298.6
857.904	18292.1
859.063	18283
860.221	18275.3
861.378	18261.7
862.536	18247.7
863.694	18230.4
864.85	18211.2
866.008	18190.5
867.164	18170.4
868.321	18151.6
869.478	18136.8
870.633	18132
871.79	18125.8
872.945	18121.9
874.101	18120.5
875.256	18121.2
876.412	18124.2
877.566	18120.9
878.722	18098.9
879.876	18080.2
881.031	18063.8
882.185	18050.1
883.34	18038.6
884.493	18029.5
885.647	18022.6
886.8	18017.5
887.954	18014.2
889.107	18007.8
890.261	17996.7
891.413	17986.2
892.565	17975.2
893.718	17964.2
894.87	17953.4
896.023	17943.5
897.174	17942.7
898.326	17947.9
899.478	17954.3
900.629	17959
901.779	17960.9
902.931	17962
904.081	17960.4
905.231	17957.3
906.383	17953.5
907.532	17949.6
908.682	17964.7
909.831	17977.4
910.982	17994.2
912.131	18011.5
913.28	18025.4
914.429	18034.6
915.578	18038.7
916.727	18024.3
917.875	18010.1
919.023	17994.3
920.171	17980
921.32	17976
922.467	17974.4
923.614	17975.7
924.761	17979.5
925.908	17986.2
927.055	17995.4
928.203	18002.7
929.349	18006.1
930.496	18004.7
931.642	17997.1
932.787	17979.8
933.933	17942.1
935.079	17913.3
936.224	17902.4
937.369	17899.5
938.514	17902.3
939.659	17901.2
940.804	17901.9
941.948	17905.2
943.092	17908.6
944.236	17913.2
945.38	17918
946.524	17921.9
947.667	17922.1
948.811	17907.9
949.954	17891.9
951.097	17870
952.24	17847.7
953.383	17827.3
954.525	17816.7
955.667	17807.5
956.81	17799.8
957.952	17793.8
959.093	17790.3
960.235	17788.8
961.376	17790.2
962.516	17794.3
963.658	17803.7
964.798	17791
965.939	17776.3
967.08	17744.2
968.22	17710.2
969.359	17694.3
970.499	17690.2
971.639	17720
972.779	17769.7
973.918	17795.3
975.056	17787.7
976.195	17668
977.334	17694.5
978.473	17688.1
979.61	17688.1
980.749	17696.7
981.887	17710.9
983.024	17719.3
984.162	17728.1
985.3	17723
986.437	17713.4
987.573	17708
988.711	17705.4
989.848	17710.1
990.983	17715.8
992.12	17724.4
993.255	17726.5
994.392	17731
995.528	17732
996.662	17732.1
997.798	17729.2
998.933	17721.1
1000.07	17703.8
1001.2	17651
1002.34	17637.8
1003.47	17630.5
1004.61	17628.4
1005.74	17631.1
1006.87	17639.4
1008.01	17648.3
1009.14	17653.6
1010.27	17659.9
1011.41	17659.7
1012.54	17659.2
1013.67	17656.7
1014.81	17653.3
1015.94	17649.6
1017.07	17647.8
1018.2	17664
1019.33	17662.8
1020.47	17663.6
1021.6	17639.4
1022.73	17562.2
1023.86	17530.9
1024.99	17563.3
1026.12	17700.4
1027.25	17532.9
1028.38	17487.9
1029.51	17472.3
1030.64	17471.7
1031.77	17463.4
1032.9	17458.6
1034.03	17458
1035.16	17458.1
1036.29	17458.6
1037.42	17459.2
1038.55	17457.8
1039.67	17453.5
1040.8	17440.5
1041.93	17425.4
1043.06	17407.2
1044.19	17386.3
1045.31	17363.8
1046.44	17340.2
1047.57	17315.7
1048.69	17291
1049.82	17267.3
1050.95	17247.8
1052.08	17233.2
1053.2	17224.7
1054.33	17220.9
1055.45	17240.9
1056.58	17270.4
1057.7	17277.6
1058.83	17271.5
1059.95	17267.9
1061.08	17267.1
1062.2	17261.8
1063.33	17253.8
1064.45	17243.8
1065.58	17230.3
1066.7	17206.9
1067.83	17181.3
1068.95	17164.2
1070.07	17147.7
1071.2	17132.6
1072.32	17131.3
1073.44	17132.8
1074.56	17137.5
1075.69	17145.8
1076.81	17154.6
1077.93	17164
1079.05	17162
1080.17	17161.5
1081.3	17160.3
1082.42	17158.5
1083.54	17156.1
1084.66	17153.7
1085.78	17156.5
1086.9	17161.8
1088.02	17168
1089.14	17172.6
1090.26	17174.1
1091.38	17169.9
1092.5	17164.2
1093.62	17156.2
1094.74	17145.9
1095.86	17133.4
1096.98	17120.9
1098.1	17112.2
1099.22	17108.9
1100.34	17113.4
1101.45	17115.1
1102.57	17145.8
1103.69	17175.5
1104.81	17198
1105.93	17190.6
1107.04	17152.9
1108.16	17100.5
1109.28	17106
1110.4	17089.3
1111.51	17077.2
1112.63	17067.8
1113.75	17064.2
1114.86	17056.8
1115.98	17049.5
1117.09	17039.7
1118.21	17009.9
1119.32	16973.2
1120.44	16942.8
1121.55	16913.4
1122.67	16909.7
1123.78	16915.1
1124.9	16916.4
1126.01	16915.9
1127.13	16908.4
1128.24	16892.4
1129.35	16872.9
1130.47	16848.4
1131.58	16819.1
1132.7	16785.2
1133.81	16773.7
1134.92	16766.2
1136.03	16748.6
1137.15	16725
1138.26	16698.1
1139.37	16666.7
1140.48	16631.8
1141.59	16600.2
1142.71	16576.4
1143.82	16578.3
1144.93	16588.2
1146.04	16586.5
1147.15	16575.1
1148.26	16562.3
1149.37	16551
1150.48	16539.4
1151.59	16526.9
1152.7	16515.2
1153.81	16504.5
1154.92	16494.3
1156.03	16484.7
1157.14	16475.6
1158.25	16498.5
1159.36	16517
1160.47	16514.9
1161.58	16498.9
1162.68	16478.5
1163.79	16457
1164.9	16427.8
1166.01	16419.8
1167.12	16424.6
1168.22	16443.6
1169.33	16462.1
1170.44	16475
1171.55	16480.4
1172.65	16486.5
1173.76	16490
1174.87	16491.6
1175.97	16491.4
1177.08	16489.2
1178.18	16488.2
1179.29	16488.1
1180.4	16485
1181.5	16476.4
1182.61	16464.9
1183.71	16455.5
1184.82	16458.3
1185.92	16465.1
1187.02	16469.2
1188.13	16471.2
1189.23	16469.8
1190.34	16466.8
1191.44	16460.9
1192.54	16452.8
1193.65	16442.3
1194.75	16429.4
1195.85	16414.7
1196.96	16407.3
1198.06	16415.1
1199.16	16424.8
1200.26	16434
1201.37	16442.2
1202.47	16447.2
1203.57	16452.4
1204.67	16456.1
1205.77	16458.6
1206.87	16459.6
1207.97	16459.7
1209.08	16457.3
1210.18	16445.7
1211.28	16424.2
1212.38	16392.8
1213.48	16367.1
1214.58	16358.7
1215.68	16353.2
1216.78	16347.9
1217.88	16344.3
1218.98	16341
1220.07	16337.3
1221.17	16333.9
1222.27	16331.1
1223.37	16325.7
1224.47	16319.9
1225.57	16313.8
1226.66	16307.3
1227.76	16302.4
1228.86	16298.1
1229.96	16294.5
1231.06	16291.4
1232.15	16289.6
1233.25	16288.2
1234.35	16278.6
1235.44	16254.8
1236.54	16208.4
1237.63	16179.6
1238.73	16157.1
1239.83	16175.2
1240.92	16193.9
1242.02	16214.7
1243.11	16141.5
1244.21	16114.1
1245.3	16111.4
1246.4	16120.8
1247.49	16122.7
1248.59	16117.3
1249.68	16104.6
1250.78	16082.3
1251.87	16064.2
1252.96	16066.3
1254.06	16081.3
1255.15	16110.9
1256.24	16119.2
1257.34	16122.4
1258.43	16093
1259.52	16077.9
1260.62	16061.9
1261.71	16044.6
1262.8	16038.9
1263.89	16035.5
1264.98	16036.4
1266.08	16039.9
1267.17	16045.4
1268.26	16049.4
1269.35	16031.4
1270.44	16024.2
1271.53	16015.2
1272.62	16010.6
1273.71	16014.8
1274.8	16019
1275.89	16023.2
1276.98	16025.6
1278.07	16026.3
1279.16	16023.6
1280.25	16018.1
1281.34	16010.5
1282.43	16000.9
1283.52	15989.9
1284.61	15979.8
1285.69	15973.4
1286.78	15975.7
1287.87	15991.3
1288.96	16009.8
1290.05	16017.8
1291.13	16023.3
1292.22	16032.2
1293.31	16033.5
1294.4	16029.6
1295.48	16034.3
1296.57	16041.6
1297.66	16050.2
1298.74	16059.7
1299.83	16071.6
1300.92	16076.7
1302	16076.4
1303.09	16067.5
1304.17	16052.3
1305.26	16033.5
1306.34	16018.3
1307.43	15997.4
1308.51	15976.1
1309.6	15963.3
1310.68	15961.1
1311.76	15982.4
1312.85	16006.9
1313.93	16022.7
1315.02	16032.5
1316.1	16009.9
1317.18	15997.2
1318.27	15982.3
1319.35	15965
1320.43	15954.8
1321.52	15941.6
1322.6	15933.9
1323.68	15923.1
1324.76	15911
1325.85	15899.3
1326.93	15892.9
1328.01	15897.5
1329.09	15897.4
1330.17	15881.7
1331.25	15863.8
1332.33	15837.5
1333.41	15812.6
1334.49	15795.5
1335.58	15797.8
1336.65	15799.2
1337.74	15802
1338.82	15805.9
1339.89	15810.3
1340.97	15806.5
1342.05	15796.7
1343.13	15781.9
1344.21	15767.4
1345.29	15755.1
1346.37	15744.1
1347.45	15734
1348.53	15725.7
1349.6	15718.7
1350.68	15713.4
1351.76	15709.3
1352.84	15704.6
1353.92	15700.4
1354.99	15696.5
1356.07	15692.7
1357.15	15692.5
1358.22	15688.4
1359.3	15671.7
1360.38	15658.5
1361.45	15642.2
1362.53	15662.4
1363.61	15708.8
1364.68	15736
1365.76	15716.1
1366.83	15709.5
1367.91	15685.2
1368.98	15705.5
1370.06	15728.1
1371.13	15733.9
1372.21	15727
1373.28	15716
1374.35	15698.8
1375.43	15673.3
1376.5	15652.9
1377.58	15635.5
1378.65	15619.9
1379.72	15612.5
1380.8	15607.2
1381.87	15606
1382.94	15610.7
1384.01	15619.1
1385.09	15628.6
1386.16	15629.9
1387.23	15633
1388.3	15630.6
1389.38	15627.9
1390.45	15624
1391.52	15618.7
1392.59	15611.1
1393.66	15595.6
1393.92	15591
1395	15571.3
1396.07	15543.7
1397.15	15519
1398.22	15504.3
1399.3	15492.9
1400.38	15492.3
1401.45	15514.9
1402.53	15537.7
1403.6	15553.8
1404.68	15556.4
1405.75	15548.7
1406.82	15533.5
1407.9	15509.1
1408.97	15479.5
1410.05	15473
1411.12	15482.8
1412.19	15508.6
1413.27	15521.4
1414.34	15525.1
1415.41	15517.7
1416.49	15479.8
1417.56	15461.5
1418.63	15442.2
1419.7	15429.1
1420.78	15428.9
1421.85	15426.7
1422.92	15419.1
1423.99	15413
1425.06	15408.2
1426.14	15406
1427.21	15404.3
1428.28	15405.1
1429.35	15403
1430.42	15391.4
1431.49	15384
1432.56	15374.7
1433.63	15370.7
1434.7	15370.1
1435.77	15371.3
1436.84	15372.3
1437.91	15373
1438.98	15372.7
1440.05	15369.9
1441.12	15365.9
1442.18	15361.1
1443.25	15354.3
1444.32	15344.9
1445.39	15333
1446.46	15314.9
1447.53	15295.2
1448.59	15280.1
1449.66	15269.9
1450.73	15271.8
1451.8	15271.9
1452.86	15273.8
1453.93	15279.2
1455	15284.7
1456.06	15286.7
1457.13	15287.3
1458.2	15284.9
1459.26	15279.7
1460.33	15272.8
1461.39	15262.4
1462.46	15250.1
1463.52	15235.8
1464.59	15222.2
1465.65	15221.1
1466.72	15218.6
1467.78	15218.6
1468.85	15221.8
1469.91	15224.6
1470.98	15226.6
1472.04	15227
1473.1	15227
1474.17	15227.1
1475.23	15228.1
1476.3	15229.1
1477.36	15230.4
1478.42	15232.1
1479.48	15234.1
1480.55	15233.7
1481.61	15227.1
1482.67	15215.2
1483.73	15196.8
1484.8	15181.9
1485.86	15163.5
1486.92	15161.2
1487.98	15160.6
1489.04	15161.6
1490.1	15164.4
1491.17	15162.4
1492.23	15159.5
1493.29	15140.1
1494.35	15121
1495.41	15105.7
1496.47	15095.6
1497.53	15093.6
1498.59	15091.4
1499.65	15087.9
1500.71	15082.9
1501.77	15072.5
1502.83	15062.7
1503.88	15052.8
1504.94	15042.8
1506	15032.7
1507.06	15022.7
1508.12	15012.7
1509.18	15002.4
1510.23	14988.6
1511.29	14973.9
1512.35	14961.6
1513.41	14954.9
1514.47	14969
1515.52	14975.8
1516.58	14980
1517.64	14980.1
1518.69	14945.5
1519.75	14926.2
1520.81	14911
1521.86	14898.5
1522.92	14896.7
1523.97	14896.3
1525.03	14895.7
1526.08	14895.8
1527.14	14897
1528.2	14899.2
1529.25	14903.6
1530.31	14902.5
1531.36	14889.1
1532.42	14865.8
1533.47	14847.3
1534.52	14830.9
1535.58	14818
1536.63	14818
1537.69	14811.4
1538.74	14804.9
1539.79	14796.8
1540.84	14787.5
1541.9	14778.1
1542.95	14763.5
1544	14754
1545.06	14748.5
1546.11	14747.2
1547.16	14750.9
1548.21	14760
1549.27	14777
1550.32	14777.3
1551.37	14739.9
1552.42	14762.2
1553.47	14797.3
1554.52	14811.8
1555.57	14806.4
1556.62	14782.7
1557.67	14772.1
1558.72	14766.6
1559.77	14758.5
1560.82	14751.2
1561.87	14753.6
1562.92	14749.3
1563.97	14740
1565.02	14726.9
1566.07	14714.6
1567.12	14699.7
1568.17	14696.8
1569.22	14691.2
1570.27	14696.2
1571.32	14716.6
1572.36	14731.9
1573.41	14739.3
1574.46	14740.2
1575.51	14734.3
1576.56	14725
1577.6	14722.2
1578.65	14710.9
1579.7	14710.1
1580.74	14712.6
1581.79	14729.9
1582.84	14736.6
1583.88	14735.9
1584.93	14728.4
1585.98	14716.2
1587.02	14697.3
1588.07	14682.9
1589.11	14670.2
1590.16	14659.9
1591.2	14651.6
1592.25	14646.2
1593.29	14642.2
1594.34	14620.4
1595.38	14598.4
1596.43	14580.8
1597.47	14557.7
1598.52	14552.9
1599.56	14553.1
1600.6	14555.5
1601.65	14562.1
1602.69	14562.6
1603.73	14540.9
1604.78	14512.5
1605.82	14495.5
1606.86	14483.5
1607.91	14473.1
1608.95	14474.1
1609.99	14464.8
1611.03	14450.1
1612.08	14434.5
1613.12	14418.8
1614.16	14404.1
1615.2	14390.8
1616.24	14378.8
1617.28	14367.7
1618.32	14357.3
1619.36	14348.1
1620.41	14331.6
1621.45	14318.5
1622.49	14314.7
1623.53	14305.7
1624.57	14302.5
1625.61	14297.3
1626.65	14286.1
1627.69	14264.8
1628.73	14245.4
1629.76	14228
1630.8	14213.4
1631.84	14200.3
1632.88	14188.7
1633.92	14177.9
1634.96	14167.4
1636	14158
1637.03	14150.1
1638.07	14144.1
1639.11	14140.3
1640.15	14139.6
1641.19	14140.7
1642.22	14143.2
1643.26	14147.8
1644.3	14145.1
1645.33	14134.9
1646.37	14126.3
1647.41	14113.5
1648.44	14101.7
1649.48	14093.2
1650.52	14082.4
1651.55	14070.8
1652.59	14057.3
1653.62	14043.7
1654.66	14023.2
1655.69	14005.7
1656.73	13998
1657.76	13997.5
1658.8	14003.8
1659.83	14015.9
1660.87	14017.2
1661.9	14012.4
1662.93	14002
1663.97	13988.9
1665	13971.3
1666.04	13964.8
1667.07	13978.8
1668.1	13992.5
1669.14	13999.4
1670.17	13999.2
1671.2	13992.6
1672.23	13980.2
1673.27	13964.9
1674.3	13957.4
1675.33	13946.4
1676.36	13935.3
1677.39	13922.5
1678.43	13909.8
1679.46	13897.5
1680.49	13887.1
1681.52	13881.7
1682.55	13877.2
1683.58	13873.8
1684.61	13870
1685.64	13864.8
1686.67	13855.6
1687.7	13845
1688.73	13832.7
1689.76	13810.8
1690.79	13783.8
1691.82	13773.6
1692.85	13762.1
1693.88	13753.1
1694.91	13750.8
1695.94	13750
1696.97	13751.2
1698	13753.1
1699.02	13754.9
1700.05	13755.1
1701.08	13755
1702.11	13754.3
1703.14	13752.6
1704.16	13749.8
1705.19	13745.1
1706.22	13738
1707.25	13729
1708.27	13718.1
1709.3	13706.1
1710.33	13692.4
1711.35	13677.4
1712.38	13658.8
1713.41	13636.4
1714.43	13608.6
1715.46	13586.1
1716.48	13573.9
1717.51	13571.3
1718.53	13573.6
1719.56	13567.4
1720.58	13560.2
1721.61	13548.3
1722.63	13532.5
1723.66	13519.8
1724.68	13513.6
1725.71	13523.6
1726.73	13515
1727.75	13503.7
1728.78	13492.1
1729.8	13480.5
1730.83	13470.7
1731.85	13461.4
1732.87	13452.9
1733.89	13445.6
1734.92	13439.1
1735.94	13433.8
1736.96	13429.8
1737.98	13427.6
1739.01	13419.6
1740.03	13402.1
1741.05	13385.3
1742.07	13369.4
1743.09	13352.8
1744.12	13338.5
1745.14	13326.4
1746.16	13316.7
1747.18	13309.2
1748.2	13305.1
1749.22	13306.5
1750.24	13320.1
1751.26	13357.6
1752.28	13348.7
1753.3	13338.4
1754.32	13330.3
1755.34	13321.8
1756.36	13312.3
1757.38	13301.5
1758.4	13290.9
1759.42	13279
1760.44	13266.4
1761.45	13252.3
1762.47	13235.1
1763.49	13214.7
1764.51	13195.9
1765.53	13186.1
1766.55	13178.5
1767.56	13172.9
1768.58	13169.3
1769.6	13167.3
1770.61	13166.9
1771.63	13164.4
1772.65	13161.5
1773.67	13158.4
1774.68	13154.9
1775.7	13152
1776.72	13149.1
1777.73	13147.1
1778.75	13137.8
1779.76	13109.9
1780.78	13065
1781.79	13048.8
1782.81	13060.3
1783.83	13063.3
1784.84	13066.4
1785.85	13066.1
1786.87	13069.1
1787.88	13067.4
1788.9	13061.6
1789.91	13052.7
1790.93	13040.6
1791.94	13027.4
1792.95	13014.3
1793.97	13000.2
1794.98	12985.5
1796	12971.4
1797.01	12959.1
1798.02	12948.3
1799.03	12938.8
1800.05	12930.6
1801.06	12922.5
1802.07	12912.8
1803.08	12900.6
1804.1	12887.1
1805.11	12874.9
1806.12	12864.2
1807.13	12856.6
1808.14	12850.3
1809.15	12844
1810.17	12839.2
1811.18	12827.3
1812.19	12783.2
1813.2	12717.3
1814.21	12720.7
1815.22	12843.3
1816.23	12836.8
1817.24	12832.2
1818.25	12806.2
1819.26	12769.5
1820.27	12740.3
1821.28	12724.5
1822.29	12705.6
1823.3	12688.6
1824.3	12675.1
1825.31	12663.8
1826.32	12654.7
1827.33	12647.2
1828.34	12629.9
1829.35	12608.3
1830.35	12581.2
1831.36	12555.1
1832.37	12526.6
1833.38	12513.8
1834.38	12514.3
1835.39	12530.9
1836.4	12556.4
1837.41	12564.1
1838.41	12559.3
1839.42	12509.6
1840.43	12474.2
1841.43	12447.8
1842.44	12418.2
1843.44	12445.6
1844.45	12435.6
1845.46	12419.6
1846.46	12412.2
1847.47	12410.4
1848.47	12407.5
1849.48	12410.3
1850.48	12418.2
1851.49	12416
1852.49	12391.7
1853.49	12379.2
1854.5	12362.7
1855.5	12358.9
1856.51	12360.2
1857.51	12373.7
1858.51	12373.5
1859.52	12371.5
1860.52	12360.9
1861.52	12348.7
1862.53	12334.9
1863.53	12319.3
1864.53	12301.6
1865.54	12282
1866.54	12259.2
1867.54	12236.8
1868.54	12237.1
1869.54	12244.1
1870.55	12248.6
1871.55	12249.2
1872.55	12244.1
1873.55	12240.4
1874.55	12224.9
1875.55	12191.1
1876.55	12160.9
1877.55	12136.6
1878.55	12118.3
1879.55	12122.3
1880.56	12137.1
1881.55	12136
1882.56	12135.2
1883.55	12132.3
1884.55	12127.4
1885.55	12118.9
1886.55	12109.2
1887.55	12100
1888.55	12090.1
1889.55	12083.2
1890.55	12074.1
1891.55	12064.3
1892.55	12053.7
1893.54	12042.6
1894.54	12030.1
1895.54	12017
1896.54	12006.8
1897.54	12001.7
1898.53	12000.1
1899.53	11994.7
1900.53	11990.5
1901.52	11976.9
1902.52	11961.3
1903.52	11947.2
1904.51	11939.8
1905.51	11935
1906.51	11928.1
1907.5	11918.8
1908.5	11910.5
1909.49	11901.2
1910.49	11892.4
1911.49	11883
1912.48	11872.3
1913.48	11858.4
1914.47	11840.4
1915.46	11819.8
1916.46	11812.5
1917.45	11805.8
1918.45	11783
1919.44	11753.5
1920.44	11710.2
1921.43	11694.4
1922.43	11693.2
1923.42	11700.6
1924.41	11709.9
1925.41	11718.7
1926.4	11727.4
1927.39	11732.8
1928.38	11731.7
1929.38	11725.3
1930.37	11709
1931.36	11682.5
1932.35	11661.9
1933.35	11643.2
1934.34	11621.1
1935.33	11600.1
1936.32	11580.9
1937.31	11567.7
1938.3	11561.2
1939.29	11554
1940.29	11577.2
1941.28	11568.9
1942.27	11565
1943.26	11559.4
1944.25	11553
1945.24	11541.2
1946.23	11525.3
1947.22	11505.8
1948.21	11487.2
1949.2	11469.4
1950.19	11452.9
1951.18	11437.2
1952.17	11427.2
1953.16	11418.5
1954.14	11406.5
1955.13	11396
1956.12	11387.5
1957.11	11381.7
1958.1	11379.5
1959.09	11377.1
1960.07	11373.5
1961.06	11362.2
1962.05	11347.7
1963.04	11328.2
1964.02	11308.6
1965.01	11290
1966	11272
1966.99	11254.8
1967.97	11238.2
1968.96	11221.8
1969.95	11206.4
1970.93	11193.2
1971.92	11190.2
1972.9	11200.1
1973.89	11214.7
1974.88	11223.5
1975.86	11221
1976.85	11212.7
1977.83	11202.3
1978.82	11189.5
1979.8	11173.6
1980.79	11155.4
1981.77	11138.8
1982.76	11126
1983.74	11117.7
1984.72	11112.8
1985.71	11116
1986.69	11114.8
1987.67	11109.3
1988.66	11101.1
1989.64	11093.5
1990.62	11086.4
1991.61	11079.4
1992.59	11071.1
1993.57	11068.9
1994.56	11051.8
1995.54	11029.5
1996.52	11016.7
1997.5	11003
1998.49	10996
1999.47	10995.3
2000.45	10993
2001.43	10993.2
2002.41	10993.5
2003.39	10990.8
2004.38	10984.8
2005.36	10976
2006.34	10965.3
2007.32	10951.1
2008.3	10932.4
2009.28	10914.8
2010.26	10900.3
2011.24	10904.2
2012.22	10900.9
2013.2	10894
2014.18	10882.1
2015.16	10865.2
2016.14	10856.4
2017.12	10847
2018.1	10837.4
2019.07	10827.3
2020.05	10817.1
2021.03	10806.4
2022.01	10786
2022.99	10764.9
2023.97	10744.9
2024.95	10724.9
2025.92	10710
2026.9	10705.7
2027.88	10703.3
2028.86	10703.3
2029.83	10707.4
2030.81	10714.1
2031.79	10716.2
2032.76	10717.5
2033.74	10690.6
2034.72	10649.3
2035.69	10619
2036.67	10592.4
2037.65	10596.3
2038.62	10602.3
2039.6	10608.6
2040.57	10607.3
2041.55	10568.9
2042.52	10553.9
2043.5	10538.8
2044.47	10519.8
2045.45	10501.2
2046.42	10484
2047.4	10470.1
2048.37	10455.2
2049.35	10442.3
2050.32	10442
2051.29	10447.5
2052.27	10456.5
2053.24	10460.5
2054.21	10452.9
2055.19	10444.6
2056.16	10431.8
2057.13	10415.4
2058.11	10395.6
2059.08	10375.6
2060.05	10361.4
2061.02	10350
2062	10341
2062.97	10334.4
2063.94	10329.2
2064.91	10324
2065.89	10318.2
2066.86	10309.3
2067.83	10299.3
2068.8	10287.2
2069.77	10273.7
2070.74	10258.7
2071.71	10241.8
2072.68	10225.5
2073.65	10214.8
2074.62	10215
2075.59	10218.8
2076.56	10220.7
2077.53	10222
2078.5	10224.4
2079.47	10216.7
2080.44	10196.6
2081.41	10175.6
2082.38	10157.6
2083.35	10137.6
2084.32	10119.2
2085.29	10101.4
2086.26	10083.7
2087.23	10066.6
2088.19	10050
2089.16	10041.6
2090.13	10051.4
2091.1	10045.8
2092.07	10038.5
2093.03	10031.3
2094	10020.9
2094.97	10008.8
2095.94	9994.55
2096.9	9978.9
2097.87	9962.02
2098.84	9943.94
2099.8	9925.75
2100.77	9905.83
2101.74	9902.43
2102.7	9908.95
2103.67	9913.3
2104.63	9913.45
2105.6	9908.24
2106.56	9893.37
2107.53	9882.01
2108.49	9854.06
2109.46	9832.85
2110.42	9829.1
2111.39	9838.71
2112.35	9842.84
2113.32	9842.02
2114.28	9836.81
2115.25	9824.86
2116.21	9809.94
2117.17	9794.46
2118.14	9781.23
2119.1	9769.21
2120.07	9759.02
2121.03	9748.54
2121.99	9739.55
2122.96	9732.9
2123.92	9729.22
2124.88	9734.29
2125.84	9734.3
2126.81	9725.89
2127.77	9707.69
2128.73	9678.55
2129.69	9662.66
2130.65	9646.46
2131.62	9629.97
2132.58	9614.34
2133.54	9600.9
2134.5	9589.35
2135.46	9579.7
2136.42	9572.52
2137.38	9569.17
2138.34	9567.75
2139.3	9567.89
2140.26	9566.54
2141.22	9560.67
2142.18	9547.3
2143.14	9533.92
2144.1	9519.58
2145.06	9504.46
2146.02	9497.01
2146.98	9492.93
2147.94	9486.41
2148.9	9481.67
2149.86	9472.58
2150.82	9458.67
2151.78	9444.4
2152.74	9430.55
2153.69	9417.26
2154.65	9404.61
2155.61	9394.17
2156.57	9384.24
2157.53	9375.46
2158.48	9367.44
2159.44	9360.63
2160.4	9353.31
2161.36	9341.89
2162.31	9331.07
2163.27	9322.07
2164.23	9320.33
2165.18	9315.18
2166.14	9305.54
2167.1	9292.39
2168.05	9277.89
2169.01	9257.44
2169.96	9234.99
2170.92	9210.16
2171.88	9183.58
2172.83	9160.73
2173.79	9143.7
2174.74	9133.44
2175.7	9122.71
2176.65	9112.5
2177.6	9102.37
2178.56	9096.4
2179.51	9088.65
2180.47	9072.21
2181.42	9056.74
2182.38	9044.46
2183.33	9029.38
2184.28	9015.51
2185.24	9000.02
2186.19	8987.49
2187.14	8977.92
2188.1	8971.91
2189.05	8969.19
2190	8964.18
2190.96	8958.13
2191.91	8952.82
2192.86	8947.58
2193.81	8942.63
2194.76	8937.98
2195.72	8933.51
2196.67	8928.89
2197.62	8923.45
2198.57	8917.27
2199.52	8908.34
2200.47	8897.27
2201.43	8885.06
2202.38	8874.81
2203.33	8865.03
2204.28	8855.93
2205.23	8847.24
2206.18	8835.35
2207.13	8821.53
2208.08	8805.33
2209.03	8787.94
2209.98	8773.63
2210.93	8759.11
2211.88	8743.59
2212.83	8729.42
2213.78	8716.2
2214.73	8706.56
2215.67	8701.76
2216.62	8703.54
2217.57	8713.72
2218.52	8719.46
2219.47	8730.18
2220.42	8727.19
2221.37	8720.97
2222.31	8712.51
2223.26	8702.39
2224.21	8693.11
2225.16	8682.64
2226.1	8668.5
2227.05	8652.88
2228	8635.75
2228.94	8619.68
2229.89	8619.59
2230.84	8615.85
2231.78	8613.08
2232.73	8611.6
2233.68	8614.49
2234.62	8611.97
2235.57	8598.67
2236.51	8592.83
2237.46	8587.88
2238.41	8586.92
2239.35	8592.6
2240.3	8594.4
2241.24	8597.98
2242.19	8592.37
2243.13	8583.32
2244.07	8543.38
2245.02	8509.51
2245.96	8492.24
2246.91	8486.66
2247.85	8525.29
2248.8	8516.22
2249.74	8516.76
2250.68	8518.25
2251.63	8519.86
2252.57	8521.54
2253.51	8518.63
2254.46	8515.82
2255.4	8514.25
2256.34	8510.57
2257.28	8509.62
2258.23	8507.13
2259.17	8502.36
2260.11	8496.22
2261.05	8487.82
2262	8484.62
2262.94	8476.29
2263.88	8471.48
2264.82	8466.56
2265.76	8462.63
2266.7	8461.01
2267.64	8460.41
2268.58	8459.14
2269.53	8456.82
2270.47	8453.7
2271.41	8449.19
2272.35	8446.15
2273.29	8437.6
2274.23	8427.98
2275.17	8420.2
2276.11	8416.5
2277.05	8414.33
2277.99	8412.79
2278.93	8409.83
2279.86	8406.97
2280.8	8401.56
2281.74	8394.08
2282.68	8385.04
2283.62	8384.43
2284.56	8394.04
2285.5	8396.3
2286.44	8385.62
2287.37	8369.61
2288.31	8341.1
2289.25	8326.91
2290.19	8326.65
2291.12	8329.84
2292.06	8330.38
2293	8331.97
2293.94	8335.55
2294.87	8339.56
2295.81	8338.94
2296.75	8333.43
2297.68	8326.89
2298.62	8317.65
2299.55	8307.9
2300.49	8300.47
2301.43	8297.05
2302.36	8295.62
2303.3	8295.52
2304.23	8297.89
2305.17	8299.33
2306.1	8296.24
2307.04	8279.06
2307.98	8261.31
2308.91	8247.38
2309.84	8235.86
2310.78	8227.63
2311.71	8222.09
2312.65	8218.27
2313.58	8215.98
2314.52	8214.73
2315.45	8210.34
2316.38	8198.01
2317.32	8176.23
2317.72	8165.91
2318.66	8147.87
2319.6	8132.88
2320.54	8120.78
2321.48	8111.87
2322.41	8106.95
2323.35	8107.48
2324.29	8104.79
2325.23	8102.3
2326.16	8089.29
2327.1	8076.83
2328.04	8066.36
2328.97	8057.55
2329.91	8050.47
2330.85	8045.68
2331.78	8042.29
2332.72	8049.64
2333.66	8057.51
2334.59	8057.18
2335.53	8054.55
2336.46	8037.74
2337.4	8019.34
2338.33	8006.32
2339.27	7993.09
2340.2	7976.76
2341.14	7959.79
2342.07	7951.79
2343.01	7955.06
2343.94	7971.41
2344.88	7985.22
2345.81	7999.09
2346.75	8006.07
2347.68	7990.94
2348.61	7975.91
2349.55	7956.4
2350.48	7931.63
2351.41	7912.94
2352.35	7902.71
2353.28	7895.64
2354.21	7889.43
2355.15	7883.15
2356.08	7876.62
2357.01	7869.68
2357.94	7862.58
2358.88	7856.02
2359.81	7851.18
2360.74	7850.6
2361.67	7854.93
2362.6	7865.34
2363.54	7855.55
2364.47	7834.24
2365.4	7828.01
2366.33	7824.61
2367.26	7824.67
2368.19	7828.93
2369.12	7835.53
2370.05	7835.35
2370.98	7832
2371.91	7822.79
2372.84	7816.49
2373.77	7813.45
2374.7	7817.61
2375.63	7819.33
2376.56	7816.63
2377.49	7809.11
2378.42	7796.76
2379.35	7779.86
2380.28	7760.58
2381.21	7746.78
2382.14	7730.6
2383.07	7724.68
2384	7724.86
2384.92	7731.54
2385.85	7734.08
2386.78	7733.72
2387.71	7727.45
2388.64	7717.18
2389.56	7707.5
2390.49	7698.5
2391.42	7690.45
2392.35	7683.28
2393.27	7677.02
2394.2	7671.8
2395.13	7667.57
2396.05	7664.45
2396.98	7662.47
2397.91	7661.52
2398.83	7661.46
2399.76	7659.9
2400.69	7654.05
2401.61	7642.44
2402.54	7633.84
2403.46	7625.9
2404.39	7619.13
2405.31	7613.07
2406.24	7607.51
2407.17	7602.79
2408.09	7599.38
2409.01	7596.21
2409.94	7592.31
2410.86	7587.54
2411.79	7581.09
2412.71	7573.09
2413.64	7560.87
2414.56	7549.19
2415.49	7536.12
2416.41	7522.74
2417.33	7511.79
2418.26	7506.59
2419.18	7511
2420.1	7511.62
2421.03	7515.12
2421.95	7510.95
2422.87	7494.89
2423.79	7482.94
2424.72	7476.87
2425.64	7472.06
2426.56	7470.54
2427.48	7469.61
2428.41	7460.41
2429.33	7456.49
2430.25	7433.23
2431.17	7408.93
2432.09	7387.99
2433.01	7369.59
2433.93	7355.31
2434.86	7342.85
2435.78	7332.27
2436.7	7323.83
2437.62	7316.59
2438.54	7318.1
2439.46	7331.28
2440.38	7355.08
2441.3	7356.85
2442.22	7353.7
2443.14	7338.66
2444.06	7310.29
2444.98	7286.6
2445.9	7265.69
2446.82	7256.53
2447.73	7258.18
2448.65	7281.35
2449.57	7291.4
2450.49	7282.46
2451.41	7276.48
2452.33	7257.96
2453.25	7249.04
2454.17	7239.43
2455.08	7231.74
2456	7232.9
2456.92	7224.75
2457.84	7213.98
2458.75	7201.39
2459.67	7181.45
2460.59	7173.33
2461.51	7164.64
2462.42	7155.04
2463.34	7144.86
2464.26	7134.33
2465.17	7123.54
2466.09	7112.7
2467	7112.54
2467.92	7135.35
2468.84	7110.41
2469.75	7093.72
2470.67	7076.44
2471.58	7073.06
2472.5	7076.29
2473.42	7091.35
2474.33	7090.44
2475.25	7087.94
2476.16	7080.96
2477.08	7056.47
2477.99	7036.76
2478.9	7017.3
2479.82	7005.79
2480.73	7003.19
2481.65	7009
2482.56	7025.96
2483.47	7046.72
2484.39	7063.56
2485.3	7073.97
2486.22	7066.04
2487.13	7047.28
2488.04	7021.49
2488.96	6987.83
2489.87	6972.47
2490.78	6977.81
2491.69	6997.05
2492.61	6989.24
2493.52	6977.31
2494.43	6968.34
2495.34	6965.73
2496.25	6963.96
2497.17	6963.04
2498.08	6962.71
2498.99	6962.86
2499.9	6962.98
2500.81	6961.42
2501.72	6955.43
2502.63	6949.22
2503.55	6941.92
2504.46	6933.27
2505.37	6923.22
2506.28	6911.25
2507.19	6902.03
2508.1	6908.26
2509.01	6923.03
2509.92	6925.5
2510.83	6925.44
2511.74	6922.65
2512.65	6915.99
2513.56	6906.88
2514.47	6893.44
2515.37	6877.56
2516.28	6859.1
2517.19	6846.43
2518.1	6854.43
2519.01	6852.36
2519.92	6849.85
2520.83	6848.56
2521.73	6847.18
2522.64	6844.76
2523.55	6841.1
2524.46	6834.87
2525.37	6827.09
2526.27	6816.15
2527.18	6809.84
2528.09	6803.14
2529	6797.44
2529.9	6792.61
2530.81	6788.73
2531.72	6785.72
2532.62	6783.57
2533.53	6782.16
2534.44	6782.65
2535.34	6787.72
2536.25	6798.95
2537.15	6779.79
2538.06	6740.5
2538.96	6714.9
2539.87	6705.9
2540.78	6711.07
2541.68	6756.59
2542.59	6757.79
2543.49	6742.36
2544.4	6738.42
2545.3	6732.36
2546.21	6721.28
2547.11	6704.68
2548.01	6681.81
2548.92	6663.85
2549.82	6652.92
2550.73	6667.14
2551.63	6688.84
2552.53	6616.8
2553.44	6597.45
2554.34	6613.13
2555.24	6636.27
2556.15	6642.96
2557.05	6644.9
2557.95	6641.76
2558.86	6633.15
2559.76	6617.5
2560.66	6597.08
2561.56	6577.72
2562.46	6560.15
2563.37	6551.05
2564.27	6542.4
2565.17	6535.93
2566.07	6531.91
2566.97	6529.16
2567.88	6526.98
2568.78	6523.58
2569.68	6518.74
2570.58	6512.73
2571.48	6504.25
2572.38	6493.83
2573.28	6482.12
2574.18	6469.95
2575.08	6460.07
2575.98	6452.02
2576.88	6450.83
2577.78	6448.38
2578.68	6444.68
2579.58	6440.66
2580.48	6434.51
2581.38	6419.7
2582.28	6414.6
2583.18	6410.51
2584.08	6408.21
2584.98	6405.68
2585.88	6401.9
2586.77	6394.2
2587.67	6389.89
2588.57	6377.55
2589.47	6353.01
2590.37	6344.17
2591.27	6342.48
2592.16	6340.52
2593.06	6337.05
2593.96	6332.52
2594.86	6326.99
2595.75	6320.89
2596.65	6314.69
2597.55	6308.42
2598.45	6302.78
2599.34	6298.59
2600.24	6294.7
2601.13	6290.44
2602.03	6284.28
2602.93	6277
2603.82	6270.28
2604.72	6268.24
2605.62	6266.7
2606.51	6263.75
2607.41	6260.65
2608.3	6258.14
2609.2	6254.98
2610.09	6246.12
2610.99	6232.21
2611.88	6220.75
2612.78	6212.41
2613.67	6208.35
2614.57	6205.51
2615.46	6202.62
2616.36	6199.98
2617.25	6197.31
2618.14	6193.87
2619.04	6187.33
2619.93	6177.52
2620.83	6161.75
2621.72	6145.27
2622.61	6128.95
2623.5	6113.74
2624.4	6099.74
2625.29	6101.89
2626.18	6105.1
2627.08	6100.38
2627.97	6093.66
2628.86	6086.77
2629.75	6079.38
2630.65	6070.29
2631.54	6066.08
2632.43	6063.06
2633.32	6071.05
2634.21	6078.82
2635.11	6072.86
2636	6061.24
2636.89	6040.68
2637.78	6021.14
2638.67	6011.35
2639.56	5999.75
2640.45	5998.24
2641.34	6008.46
2642.23	6008.13
2643.12	5998.6
2644.01	5979.5
2644.9	5953.04
2645.79	5932.45
2646.68	5916.68
2647.57	5916.36
2648.46	5912.91
2649.35	5914.24
2650.24	5919.77
2651.13	5924.69
2652.02	5923.69
2652.91	5916.65
2653.8	5902.87
2654.69	5869.67
2655.58	5870.04
2656.46	5880.69
2657.35	5880.83
2658.24	5869.8
2659.13	5859.27
2660.02	5849.94
2660.9	5841.74
2661.79	5834.71
2662.68	5828.89
2663.57	5824.02
2664.45	5828.98
2665.34	5839.43
2666.23	5837.06
2667.11	5821.72
2668	5803.86
2668.89	5795.11
2669.77	5791.02
2670.66	5794.46
2671.55	5793.16
2672.43	5790.55
2673.32	5790.81
2674.21	5787.93
2675.09	5781.91
2675.98	5772.57
2676.86	5760.45
2677.75	5745.81
2678.63	5730.71
2679.52	5719.79
2680.4	5708.33
2681.29	5708.44
2682.17	5711.56
2683.06	5710.17
2683.94	5710.59
2684.82	5711.34
2685.71	5710.05
2686.59	5705.99
2687.48	5698.35
2688.36	5686.57
2689.24	5670.33
2690.13	5649.39
2691.01	5624.79
2691.89	5604.28
2692.78	5601.21
2693.66	5613.75
2694.54	5614.51
2695.43	5613.88
2696.31	5610.62
2697.19	5604.61
2698.07	5594.76
2698.96	5582.46
2699.84	5563.3
2700.72	5552.88
2701.6	5561.11
2702.48	5565.77
2703.36	5567.7
2704.25	5567.75
2705.13	5566.63
2706.01	5565.51
2706.89	5562.62
2707.77	5556.93
2708.65	5546.3
2709.53	5531.7
2710.41	5521.26
2711.29	5511.1
2712.17	5501.98
2713.05	5495.19
2713.93	5489.41
2714.81	5485.74
2715.69	5483.31
2716.57	5481.72
2717.45	5479.84
2718.33	5472.83
2719.21	5467.06
2720.09	5460.95
2720.97	5453.28
2721.85	5445.12
2722.73	5438.92
2723.61	5435.12
2724.48	5433.61
2725.36	5431.54
2726.24	5428.86
2727.12	5425.4
2728	5419.37
2728.88	5412.14
2729.75	5403.95
2730.63	5395.06
2731.51	5384.74
2732.39	5374.02
2733.26	5377.92
2734.14	5375.99
2735.02	5378.18
2735.89	5378.77
2736.77	5376.91
2737.65	5373.07
2738.52	5367.07
2739.4	5358.81
2740.28	5346.73
2741.15	5332.52
2742.03	5320.84
2742.9	5311.65
2743.78	5311.73
2744.65	5310.34
2745.53	5307.05
2746.41	5302.74
2747.28	5298.29
2748.16	5294.69
2749.03	5291.59
2749.91	5290.65
2750.78	5291.97
2751.66	5295.13
2752.53	5297.61
2753.4	5298.24
2754.28	5295.88
2755.15	5279.21
2756.02	5263.12
2756.9	5238.45
2757.77	5218.38
2758.65	5218.99
2759.52	5228.55
2760.39	5242.15
2761.27	5240.58
2762.14	5242.5
2763.01	5242.02
2763.88	5239.6
2764.76	5234.6
2765.63	5226.91
2766.5	5214.99
2767.37	5190.99
2768.25	5174.34
2769.12	5160.95
2769.99	5149.56
2770.86	5142.41
2771.73	5139.69
2772.61	5140.01
2773.48	5143.35
2774.35	5149.3
2775.22	5156.94
2776.09	5146.31
2776.96	5136.44
2777.83	5128.16
2778.7	5123.56
2779.57	5117.31
2780.44	5119.78
2781.31	5128.93
2782.18	5134.56
2783.05	5137.84
2783.92	5130.06
2784.79	5114.92
2785.66	5104.65
2786.53	5085.21
2787.4	5065.06
2788.27	5049.87
2789.14	5039.34
2790.01	5032.39
2790.88	5035.33
2791.75	5040.09
2792.62	5041.14
2793.48	5039.86
2794.35	5037.43
2795.22	5033.26
2796.09	5027.35
2796.96	5026.8
2797.82	5028.36
2798.69	5032.83
2799.56	5037.55
2800.43	5035.17
2801.29	5024.34
2802.16	4999.96
2803.03	4985.01
2803.9	4970.57
2804.76	4961.22
2805.63	4952.4
2806.5	4953.06
2807.36	4955.88
2808.23	4957.3
2809.09	4956.38
2809.96	4949.8
2810.83	4945.05
2811.69	4940
2812.56	4933.98
2813.42	4930.89
2814.29	4939.55
2815.15	4930.48
2816.02	4915.76
2816.88	4905
2817.75	4902.31
2818.61	4909.26
2819.48	4916.42
2820.34	4918.85
2821.21	4920.13
2822.07	4918.29
2822.94	4913.8
2823.8	4904.29
2824.66	4894.28
2825.53	4884.15
2826.39	4873.86
2827.26	4863.38
2828.12	4853.02
2828.98	4842.74
2829.85	4832.82
2830.71	4824.03
2831.57	4816.67
2832.43	4816.83
2833.3	4817.84
2834.16	4820.7
2835.02	4824.18
2835.88	4826.5
2836.75	4828.56
2837.61	4817.32
2838.47	4799.82
2839.33	4787.98
2840.19	4781.43
2841.06	4779.9
2841.92	4782.86
2842.78	4790.61
2843.64	4787.94
2844.5	4780.64
2845.36	4777.37
2846.22	4774.59
2847.08	4773.84
2847.94	4773.91
2848.81	4776.93
2849.67	4780.79
2850.53	4785.68
2851.39	4789.97
2852.25	4773.82
2853.11	4760.6
2853.97	4749.51
2854.82	4741.68
2855.68	4752.17
2856.54	4749.74
2857.4	4744.2
2858.26	4734.13
2859.12	4723.39
2859.98	4709.25
2860.84	4697.5
2861.7	4689.26
2862.56	4684.41
2863.41	4681.02
2864.27	4678.01
2865.13	4675.44
2865.99	4671.8
2866.85	4666.41
2867.7	4659.94
2868.56	4652.16
2869.42	4643.16
2870.28	4632.79
2871.13	4623.87
2871.99	4629.65
2872.85	4639.08
2873.7	4645.18
2874.56	4649.85
2875.42	4647.69
2876.27	4633.64
2877.13	4620.57
2877.99	4610.84
2878.84	4604.38
2879.7	4596.97
2880.56	4599.13
2881.41	4604.64
2882.27	4605.68
2883.12	4598.65
2883.98	4589.16
2884.83	4581.35
2885.69	4571.77
2886.54	4565.44
2887.4	4563.56
2888.25	4565.81
2889.11	4569.7
2889.96	4564.1
2890.82	4558.12
2891.67	4547.26
2892.52	4538.7
2893.38	4531.27
2894.23	4527.62
2895.09	4526.33
2895.94	4522.95
2896.79	4522.03
2897.65	4514.91
2898.5	4506.13
2899.35	4496.17
2900.21	4483.02
2901.06	4470.85
2901.91	4463.58
2902.76	4459.76
2903.62	4460.83
2904.47	4453.1
2905.32	4445.58
2906.17	4439.21
2907.03	4432.93
2907.88	4430.51
2908.73	4429.28
2909.58	4429.72
2910.43	4431.78
2911.28	4435.51
2912.14	4440.9
2912.99	4444.41
2913.84	4444.57
2914.69	4432.06
2915.54	4413.17
2916.39	4395.35
2917.24	4378.65
2918.09	4369.59
2918.94	4378.48
2919.79	4380.14
2920.64	4379.26
2921.49	4379.36
2922.34	4376.43
2923.19	4367.59
2924.04	4353.8
2924.89	4336.48
2925.74	4337.62
2926.59	4356.53
2927.44	4376.23
2928.29	4372.76
2929.14	4348.87
2929.98	4333.99
2930.83	4318.54
2931.68	4307.81
2932.53	4301.66
2933.38	4296.04
2934.23	4289.76
2935.07	4285.5
2935.92	4281.61
2936.77	4278.31
2937.62	4275.38
2938.47	4272.31
2939.31	4268.89
2940.16	4263.24
2941.01	4257.18
2941.85	4250.17
2942.7	4241.75
2943.55	4232.59
2944.39	4229.54
2945.24	4228.67
2946.09	4225.63
2946.93	4222.66
2947.78	4220.13
2948.63	4217.99
2949.47	4215.96
2950.32	4214.4
2951.16	4213.06
2952.01	4211.83
2952.85	4210.47
2953.7	4208.95
2954.55	4207.06
2955.39	4204.57
2956.24	4201.81
2957.08	4198.21
2957.92	4193.72
2958.77	4188.04
2959.61	4181.3
2960.46	4173.42
2961.3	4164.63
2962.15	4155.03
2962.99	4144.77
2963.83	4135.87
2964.68	4129.6
2965.52	4126.9
2966.37	4135.26
2967.21	4139.55
2968.05	4145.21
2968.9	4145
2969.74	4146.09
2970.58	4136.58
2971.42	4122.19
2972.27	4110.75
2973.11	4101.24
2973.95	4094.67
2974.79	4090.1
2975.64	4086.4
2976.48	4083.73
2977.32	4081.98
2978.16	4080.07
2979	4077.63
2979.85	4074.61
2980.69	4070.98
2981.53	4066.77
2982.37	4061.85
2983.21	4056.01
2984.05	4049.17
2984.89	4045.33
2985.73	4042.45
2986.57	4040.07
2987.41	4036.18
2988.25	4031.45
2989.1	4026.37
2989.94	4021.36
2990.77	4026.83
2991.62	4031.3
2992.45	4036.07
2993.29	4039.3
2994.13	4037.39
2994.97	4031.88
2995.81	4024.29
2996.65	4013.29
2997.49	3995.86
2998.33	3975.09
2999.17	4014.03
