200.833	20648.5
202.102	20541.3
203.371	20492.9
204.639	20515.1
205.907	20538.4
207.175	20559.8
208.442	20580.7
209.71	20600.2
210.977	20619.2
212.244	20638.7
213.511	20658.4
214.777	20671.7
216.042	20685.5
217.309	20693
218.575	20716
219.84	20753.6
221.106	20792
222.371	20831.8
223.635	20872
224.9	20911.5
226.165	20951.3
227.429	20991
228.694	21030.8
229.956	21070.4
231.22	21110
232.484	21149.7
233.747	21189.4
235.011	21229.3
236.272	21269.2
237.535	21310
238.798	21350.3
240.06	21381.8
241.321	21404.2
242.583	21404.6
243.845	21404.3
245.105	21420.6
246.367	21456
247.628	21496.2
248.888	21555.9
250.149	21631.4
251.409	21633
252.67	21642.2
253.928	21651.4
255.189	21654.7
256.447	21657.5
257.707	21660.7
258.966	21664.1
260.224	21667.8
261.483	21671.6
262.742	21674.3
263.999	21682.9
265.257	21713.9
266.514	21765
267.772	21849.7
269.028	21909.8
270.286	21887
271.543	21902.1
272.799	21921.8
274.056	21937.7
275.311	21948.8
276.568	21961.6
277.823	21983.2
279.079	22008.9
280.333	22036.4
281.589	22065.6
282.843	22095.9
284.099	22129.4
285.352	22158.3
286.607	22167
287.86	22179.4
289.114	22191.5
290.368	22201.2
291.621	22224.5
292.875	22263.9
294.127	22308.6
295.38	22347.1
296.632	22375.3
297.884	22387.6
299.137	22397.9
300.388	22405.6
301.641	22411.1
302.891	22416.7
304.142	22427.8
305.394	22439.4
306.644	22450
307.894	22458.1
309.146	22459.9
310.395	22440.2
311.645	22440.6
312.895	22435.8
314.144	22455.7
315.393	22470.7
316.642	22473.8
317.892	22478.8
319.14	22485.3
320.388	22492.4
321.637	22506.1
322.885	22527.6
324.132	22553.2
325.38	22583
326.628	22618.5
327.875	22658.3
329.122	22702.1
330.368	22745.8
331.614	22769
332.862	22787.2
334.108	22798
335.353	22801.4
336.599	22788.8
337.844	22774.7
339.089	22786.4
340.335	22809.2
341.58	22862.2
342.824	22877.6
344.068	22875.7
345.312	22877.9
346.556	22880.1
347.8	22879
349.043	22876.5
350.286	22879.3
351.53	22885.8
352.774	22896.5
354.016	22911.7
355.259	22933.1
356.501	22960
357.743	22986.8
358.985	23008.5
360.227	23000.5
361.468	22983.4
362.709	22992.2
363.95	23025.2
365.191	23041.7
366.432	23041.3
367.672	23032
368.912	23029
370.152	23018.9
371.392	23005.9
372.632	22976.1
373.871	23199.6
375.11	23097.9
376.348	23083.1
377.587	23067.1
378.825	23076.6
380.064	23099.6
381.302	23131.9
382.54	23161.7
383.778	23190.2
385.016	23218.4
386.253	23239.3
387.489	23255
388.726	23259.8
389.963	23259.5
391.199	23255.4
392.436	23252.1
393.672	23255.7
394.907	23266.8
396.142	23284
397.378	23306.8
398.614	23335.1
399.849	23368.7
401.082	23407.1
402.317	23447.1
403.552	23471.4
404.786	23470.8
406.019	23467.4
407.253	23459.8
408.487	23449.5
409.721	23447
410.953	23442.3
412.186	23435.7
413.419	23430.4
414.651	23423.6
415.883	23424.9
417.116	23459.1
418.347	23514.9
419.579	23559.4
420.811	23586.3
422.041	23592.1
423.272	23566.4
424.504	23538.4
425.733	23522.7
426.964	23536.2
428.194	23562.2
429.424	23580.2
430.654	23569.2
431.883	23548.6
433.113	23519.4
434.341	23496.2
435.571	23462.3
436.799	23586.6
438.028	23596.4
439.257	23601.6
440.484	23607
441.713	23623.3
442.94	23644.1
444.168	23653.1
445.394	23653
446.622	23656.3
447.848	23664.2
449.076	23675.3
450.301	23688.9
451.528	23706.2
452.754	23727.3
453.979	23751.7
455.205	23780.2
456.43	23810.5
457.656	23831.1
458.88	23808.1
460.106	23728.7
461.33	23618.5
462.554	23747
463.779	23764.8
465.002	23794.9
466.225	23782.3
467.45	23771.6
468.672	23761
469.895	23748.4
471.119	23737
472.341	23730.9
473.563	23728.7
474.786	23738.7
476.008	23761.2
477.229	23782.6
478.452	23800.9
479.673	23799.9
480.894	23780.9
482.115	23744.6
483.337	23712
484.557	23677
485.777	23637.6
486.997	23604.8
488.218	23602.6
489.438	23621.7
490.657	23648.7
491.876	23667.3
493.096	23679.7
494.315	23695.9
495.533	23703.1
496.752	23679.5
497.97	23662
499.188	23643.4
500.407	23633.7
501.625	23643.1
502.842	23667.8
504.059	23681.5
505.276	23693.7
506.493	23707.1
507.71	23716
508.926	23722
510.142	23724.5
511.358	23721.7
512.575	23713.7
513.791	23700.8
515.006	23698.4
516.222	23708.3
517.437	23732.9
518.651	23766.2
519.866	23807.8
521.081	23856.5
522.295	23916.1
523.509	23930.2
524.723	23919.2
525.937	23868.4
527.15	23829.5
528.363	23810.1
529.576	23809.1
530.789	23841.2
532.002	23869.9
533.215	23896.4
534.426	23917.5
535.638	23929.5
536.85	23937.1
538.061	23951.1
539.273	23960.1
540.484	23965.5
541.695	23967
542.906	23964.9
544.117	23959.6
545.327	23944.3
546.537	23921.8
547.747	23896.6
548.957	23882.8
550.167	23891.7
551.377	23899.7
552.585	23909.3
553.794	23917.6
555.003	23926.6
556.212	23937.4
557.421	23947.7
558.628	23958.8
559.836	23970
561.044	23980.6
562.252	23989
563.458	23980.3
564.666	23968.9
565.873	23935.1
567.08	23904
568.286	23882.3
569.493	23872.3
570.699	23929.1
571.904	23920
573.111	23920.5
574.317	23921.1
575.521	23921.2
576.727	23919.2
577.932	23908
579.136	23916.1
580.341	23926.5
581.544	23939.6
582.749	23956.7
583.954	23978
585.156	23976.4
586.361	23967.9
587.563	23956.9
588.767	23946.3
589.97	23945.4
591.172	23955.2
592.375	23971.6
593.577	23990
594.78	24012.2
595.981	24036.3
597.183	24042.8
598.384	24041
599.586	24031.3
600.786	24013.7
601.988	23991.3
603.188	23956.2
604.389	23942.3
605.589	23933.7
606.79	23959.7
607.989	23949.3
609.188	23902.8
610.389	23859.7
611.587	23818.8
612.787	23779.8
613.986	23741.3
615.184	23749.8
616.383	23769.7
617.581	23777.8
618.78	23775
619.977	23759.5
621.174	23723.5
622.373	23699.7
623.57	23686.9
624.766	23671.4
625.964	23657
627.16	23643.8
628.356	23633.1
629.554	23625.5
630.749	23622.7
631.945	23669
633.14	23679.9
634.337	23677.3
635.532	23614.6
636.726	23574.9
637.921	23579.6
639.117	23583.6
640.311	23603.9
641.505	23603.9
642.699	23605.7
643.892	23602.8
645.087	23590.8
646.28	23575.5
647.473	23569.4
648.666	23568.9
649.859	23577.2
651.051	23582
652.245	23573.7
653.437	23570.9
654.629	23577
655.821	23587.8
657.012	23598.8
658.204	23609
659.395	23617.1
660.586	23625
661.777	23632.9
662.967	23641.3
664.158	23649.6
665.349	23657.9
666.539	23669.3
667.729	23681.4
668.919	23689.9
670.109	23690.4
671.298	23627.5
672.487	23618
673.676	23622.1
674.865	23622.9
676.053	23627.3
677.242	23640.4
678.43	23661.1
679.616	23676.3
680.804	23686.5
681.992	23692.2
683.179	23694.1
684.366	23691.9
685.554	23685.8
686.74	23675
687.927	23660.4
689.114	23642.3
690.3	23622.1
691.486	23601.3
692.671	23595.4
693.856	23592.5
695.042	23587.7
696.227	23584.9
697.413	23570
698.598	23550
699.781	23520.3
700.966	23496.1
702.15	23475.2
703.334	23459.5
704.518	23454.6
705.701	23450.4
706.885	23447.6
708.068	23446.5
709.252	23444.5
710.433	23441.5
711.616	23435.1
712.799	23427.5
713.98	23417.8
715.163	23404.7
716.345	23387.8
717.527	23362.9
718.707	23353
719.889	23359.3
721.071	23389.1
722.25	23402.7
723.432	23430.2
724.611	23436.3
725.792	23431.7
726.972	23416.2
728.151	23390.2
729.332	23387.2
730.512	23393.9
731.69	23403.8
732.87	23414.9
734.048	23425.9
735.227	23436.1
736.405	23444.8
737.584	23451.6
738.761	23457.2
739.94	23462.4
741.117	23467.3
742.295	23474.2
743.471	23493.9
744.649	23513.6
745.825	23513
747.003	23493.9
748.179	23485.6
749.356	23489
750.531	23500.7
751.708	23510.4
752.883	23516.4
754.059	23517.4
755.234	23509.9
756.409	23497.5
757.585	23458.7
758.759	23435.5
759.934	23429.5
761.108	23441.1
762.282	23471.6
763.456	23487.7
764.63	23491.4
765.803	23480.3
766.977	23451.9
768.15	23408.2
769.323	23370.1
770.496	23357.2
771.668	23375.3
772.841	23394.2
774.014	23380.4
775.185	23345
776.357	23260.3
777.528	23258.8
778.701	23243.7
779.872	23231.8
781.042	23222.6
782.213	23216.4
783.383	23213.1
784.555	23207.3
785.725	23187.7
786.895	23170
788.064	23151.1
789.234	23131.6
790.404	23110.1
791.573	23088
792.742	23070.4
793.911	23057.3
795.08	23057
796.248	23062.2
797.416	23070.2
798.584	23075.9
799.753	23081.2
800.921	23091.6
802.088	23086.4
803.256	23079
804.423	23074.2
805.59	23069.7
806.756	23066.2
807.923	23063.3
809.089	23061.3
810.256	23060.6
811.422	23061.6
812.587	23064.7
813.753	23072.1
814.918	23081.4
816.084	23093.8
817.249	23106.8
818.414	23120.9
819.578	23125.1
820.743	23104.3
821.907	23088.5
823.072	23089.2
824.236	23089.6
825.399	23106.2
826.562	23125.3
827.725	23142.5
828.889	23161.8
830.052	23171.5
831.215	23179
832.377	23170.7
833.54	23161.6
834.701	23148.7
835.863	23134.8
837.025	23120.4
838.187	23105.6
839.349	23100.7
840.51	23106
841.67	23117.7
842.831	23120.8
843.992	23119.6
845.153	23116.7
846.312	23110.8
847.473	23103.5
848.633	23096
849.793	23088.2
850.951	23080.8
852.111	23071.3
853.27	23060.7
854.428	23046.1
855.588	23029.6
856.747	23005.8
857.904	22982.5
859.063	22957.7
860.221	22935.9
861.378	22918.1
862.536	22904.5
863.694	22896
864.85	22906.3
866.008	22918.4
867.164	22925.6
868.321	22909.9
869.478	22875.2
870.633	22830.1
871.79	22799.5
872.945	22776.2
874.101	22756
875.256	22759.1
876.412	22753.6
877.566	22741.4
878.722	22725
879.876	22700.6
881.031	22663.1
882.185	22620.8
883.34	22577.2
884.493	22561
885.647	22561.1
886.8	22573.7
887.954	22602.4
889.107	22626.9
890.261	22639.9
891.413	22641.1
892.565	22624.5
893.718	22611.2
894.87	22578.8
896.023	22572.1
897.174	22566.9
898.326	22567.1
899.478	22579.7
900.629	22584.6
901.779	22585.1
902.931	22567.4
904.081	22552
905.231	22544.5
906.383	22543.4
907.532	22547.2
908.682	22559.5
909.831	22571
910.982	22585.6
912.131	22605.2
913.28	22613.8
914.429	22609.2
915.578	22596.6
916.727	22604.9
917.875	22608.4
919.023	22609.9
920.171	22611.2
921.32	22607.2
922.467	22601.1
923.614	22591.8
924.761	22580
925.908	22565.1
927.055	22549.1
928.203	22555.5
929.349	22553.9
930.496	22562.2
931.642	22580.8
932.787	22585
933.933	22583.6
935.079	22573.4
936.224	22557.6
937.369	22546
938.514	22533.1
939.659	22517.1
940.804	22499.6
941.948	22479.2
943.092	22469.5
944.236	22473.1
945.38	22480.1
946.524	22493.4
947.667	22500
948.811	22498.4
949.954	22487.9
951.097	22468.4
952.24	22440.2
953.383	22404.1
954.525	22382.2
955.667	22349.3
956.81	22328.8
957.952	22297.9
959.093	22292
960.235	22290
961.376	22313.4
962.516	22346.3
963.658	22299.8
964.798	22259.6
965.939	22248.4
967.08	22251.2
968.22	22258.9
969.359	22261.4
970.499	22260.5
971.639	22259.3
972.779	22255.9
973.918	22250.5
975.056	22240.8
976.195	22229
977.334	22217
978.473	22203.9
979.61	22207.9
980.749	22211.7
981.887	22219.6
983.024	22231.7
984.162	22237.4
985.3	22241.1
986.437	22219
987.573	22200.4
988.711	22210.1
989.848	22229
990.983	22255.2
992.12	22273.4
993.255	22270.3
994.392	22286.7
995.528	22316.8
996.662	22347.4
997.798	22258
998.933	22236.6
1000.07	22218.4
1001.2	22204.2
1002.34	22192.7
1003.47	22182.2
1004.61	22174
1005.74	22167.6
1006.87	22162.6
1008.01	22159.6
1009.14	22157.7
1010.27	22156.2
1011.41	22157.5
1012.54	22162.7
1013.67	22179.9
1014.81	22185.6
1015.94	22180.7
1017.07	22170.1
1018.2	22158.8
1019.33	22149.5
1020.47	22143
1021.6	22138.2
1022.73	22136.4
1023.86	22137.1
1024.99	22139.4
1026.12	22145
1027.25	22142.8
1028.38	22115.4
1029.51	22072.5
1030.64	22032.3
1031.77	22013.1
1032.9	21997.5
1034.03	21991.5
1035.16	21992.4
1036.29	22002
1037.42	22014.6
1038.55	21996.9
1039.67	21968.4
1040.8	21937.2
1041.93	21904.9
1043.06	21873.7
1044.19	21843.6
1045.31	21812.4
1046.44	21781.6
1047.57	21752.7
1048.69	21728.3
1049.82	21721.9
1050.95	21716.2
1052.08	21717.2
1053.2	21721.8
1054.33	21731
1055.45	21736.1
1056.58	21712.5
1057.7	21695.6
1058.83	21678.3
1059.95	21661.3
1061.08	21648.6
1062.2	21643.8
1063.33	21648.3
1064.45	21653.5
1065.58	21651.6
1066.7	21644.3
1067.83	21628.7
1068.95	21604.2
1070.07	21604.4
1071.2	21614.3
1072.32	21619.8
1073.44	21619.2
1074.56	21612.7
1075.69	21602.4
1076.81	21590.2
1077.93	21581.4
1079.05	21571.6
1080.17	21575.7
1081.3	21586.7
1082.42	21604.5
1083.54	21627
1084.66	21654.5
1085.78	21684.1
1086.9	21698
1088.02	21698.3
1089.14	21684.6
1090.26	21645.6
1091.38	21608.2
1092.5	21598.8
1093.62	21594.8
1094.74	21641.1
1095.86	21656.2
1096.98	21682
1098.1	21681.8
1099.22	21626.2
1100.34	21606.2
1101.45	21584.3
1102.57	21604.1
1103.69	21601.7
1104.81	21591.1
1105.93	21578.7
1107.04	21564.3
1108.16	21550.2
1109.28	21533.3
1110.4	21514.3
1111.51	21494.5
1112.63	21478.5
1113.75	21465.7
1114.86	21460.2
1115.98	21448.2
1117.09	21432.8
1118.21	21417.4
1119.32	21403
1120.44	21389.7
1121.55	21378.4
1122.67	21369.7
1123.78	21364.3
1124.9	21357.9
1126.01	21344.9
1127.13	21326.8
1128.24	21299.8
1129.35	21267.8
1130.47	21232
1131.58	21192.5
1132.7	21156.5
1133.81	21125.4
1134.92	21097.8
1136.03	21076.4
1137.15	21066.5
1138.26	21061.5
1139.37	21057.1
1140.48	21053.1
1141.59	21047
1142.71	21034.9
1143.82	21019.5
1144.93	20998
1146.04	20976.2
1147.15	20957.1
1148.26	20940.3
1149.37	20924.6
1150.48	20910
1151.59	20896.5
1152.7	20884.5
1153.81	20873.5
1154.92	20863.9
1156.03	20855.2
1157.14	20848
1158.25	20843.7
1159.36	20836.8
1160.47	20826.6
1161.58	20812
1162.68	20798.9
1163.79	20788.6
1164.9	20780.9
1166.01	20776
1167.12	20773.7
1168.22	20775.2
1169.33	20778.9
1170.44	20787.7
1171.55	20801.1
1172.65	20814.5
1173.76	20826.6
1174.87	20825.8
1175.97	20817.1
1177.08	20808.8
1178.18	20802.4
1179.29	20804
1180.4	20804.2
1181.5	20812.3
1182.61	20821.1
1183.71	20835.3
1184.82	20851.3
1185.92	20859.5
1187.02	20860.6
1188.13	20848.2
1189.23	20837.7
1190.34	20824
1191.44	20811.1
1192.54	20803.1
1193.65	20795.4
1194.75	20789.5
1195.85	20784.9
1196.96	20781.6
1198.06	20779.5
1199.16	20778.5
1200.26	20779.1
1201.37	20780.9
1202.47	20783.9
1203.57	20787.7
1204.67	20789.3
1205.77	20784
1206.87	20779.8
1207.97	20774.6
1209.08	20768.6
1210.18	20762.2
1211.28	20755.8
1212.38	20749.4
1213.48	20742.7
1214.58	20735.6
1215.68	20727
1216.78	20713.5
1217.88	20697.1
1218.98	20679.1
1220.07	20656.2
1221.17	20631.4
1222.27	20629.2
1223.37	20629.3
1224.47	20627.2
1225.57	20617.3
1226.66	20605.2
1227.76	20596.2
1228.86	20586.6
1229.96	20579.9
1231.06	20570.3
1232.15	20558.2
1233.25	20544
1234.35	20527.5
1235.44	20511.7
1236.54	20496
1237.63	20479.5
1238.73	20464.2
1239.83	20451.6
1240.92	20443.2
1242.02	20434.3
1243.11	20424.5
1244.21	20414
1245.3	20402.4
1246.4	20389.7
1247.49	20375.2
1248.59	20358.4
1249.68	20338.5
1250.78	20359.5
1251.87	20377.7
1252.96	20379.3
1254.06	20363.7
1255.15	20333
1256.24	20314.5
1257.34	20294.6
1258.43	20283
1259.52	20259.8
1260.62	20283.4
1261.71	20317.6
1262.8	20324.8
1263.89	20314.7
1264.98	20297.9
1266.08	20280.1
1267.17	20278.2
1268.26	20273.9
1269.35	20270.4
1270.44	20267.7
1271.53	20266.3
1272.62	20266.5
1273.71	20268.4
1274.8	20272.3
1275.89	20280.1
1276.98	20289.2
1278.07	20296.2
1279.16	20302.2
1280.25	20292.1
1281.34	20288.3
1282.43	20294.7
1283.52	20303.2
1284.61	20315.5
1285.69	20332.5
1286.78	20350.8
1287.87	20343.3
1288.96	20338.4
1290.05	20336.2
1291.13	20336.3
1292.22	20339.4
1293.31	20345
1294.4	20354.1
1295.48	20359.9
1296.57	20360.3
1297.66	20354
1298.74	20341.7
1299.83	20322.8
1300.92	20297.5
1302	20281.2
1303.09	20286.4
1304.17	20301
1305.26	20312.7
1306.34	20314.8
1307.43	20311.7
1308.51	20302
1309.6	20291.4
1310.68	20279.7
1311.76	20273.1
1312.85	20267.3
1313.93	20274
1315.02	20277.3
1316.1	20269.9
1317.18	20258.7
1318.27	20244.8
1319.35	20228
1320.43	20209.5
1321.52	20186.8
1322.6	20175.2
1323.68	20169.5
1324.76	20165.3
1325.85	20159.3
1326.93	20149.5
1328.01	20135
1329.09	20114.1
1330.17	20093.7
1331.25	20078.2
1332.33	20061.4
1333.41	20045.1
1334.49	20035.5
1335.58	20029.1
1336.65	20031.3
1337.74	20033.5
1338.82	20039.9
1339.89	20046.6
1340.97	20052.5
1342.05	20053.2
1343.13	20036.5
1344.21	20007.4
1345.29	19961.4
1346.37	19953
1347.45	19957.1
1348.53	19964.6
1349.6	19972.7
1350.68	19978
1351.76	19982.6
1352.84	19979
1353.92	19963.1
1354.99	19942.2
1356.07	19928.9
1357.15	19921.4
1358.22	19919.8
1359.3	19926.3
1360.38	19933.8
1361.45	19941.8
1362.53	19952.7
1363.61	19960.8
1364.68	19962.8
1365.76	19956.6
1366.83	19954.5
1367.91	19951.4
1368.98	19947.9
1370.06	19949.3
1371.13	19947.2
1372.21	19942.7
1373.28	19937
1374.35	19930.6
1375.43	19924.5
1376.5	19917.7
1377.58	19910.5
1378.65	19903.3
1379.72	19896.4
1380.8	19894.3
1381.87	19890
1382.94	19882.4
1384.01	19874.2
1385.09	19861.2
1386.16	19829.9
1387.23	19797.6
1388.3	19757
1389.38	19775.1
1390.45	19816.4
1391.52	19860
1392.59	19884.3
1393.66	19840.8
1393.92	19824.2
1395	19805
1396.07	19796.9
1397.15	19789.2
1398.22	19773.1
1399.3	19758.4
1400.38	19744.2
1401.45	19731.8
1402.53	19721.3
1403.6	19710.9
1404.68	19702.6
1405.75	19696.1
1406.82	19691.7
1407.9	19692.5
1408.97	19698.7
1410.05	19708.3
1411.12	19689.1
1412.19	19670.9
1413.27	19652.1
1414.34	19633.4
1415.41	19615.4
1416.49	19600.9
1417.56	19591.3
1418.63	19584
1419.7	19579.1
1420.78	19577
1421.85	19577.2
1422.92	19579.9
1423.99	19584.5
1425.06	19590.8
1426.14	19597.8
1427.21	19596.2
1428.28	19583.8
1429.35	19569.3
1430.42	19548
1431.49	19531.4
1432.56	19523.3
1433.63	19516.9
1434.7	19512.7
1435.77	19510.8
1436.84	19511.8
1437.91	19514.5
1438.98	19502.4
1440.05	19484.1
1441.12	19453
1442.18	19428.9
1443.25	19406.3
1444.32	19396.5
1445.39	19401.1
1446.46	19418.4
1447.53	19439.9
1448.59	19444.8
1449.66	19455.4
1450.73	19452.7
1451.8	19445.5
1452.86	19443.9
1453.93	19429.7
1455	19429.4
1456.06	19426.8
1457.13	19425.3
1458.2	19425
1459.26	19431.5
1460.33	19428.7
1461.39	19412
1462.46	19382
1463.52	19365
1464.59	19346.6
1465.65	19343.1
1466.72	19338.6
1467.78	19344.3
1468.85	19352.2
1469.91	19358.3
1470.98	19362
1472.04	19364.1
1473.1	19365.2
1474.17	19364.3
1475.23	19361.6
1476.3	19357.3
1477.36	19350.9
1478.42	19343.3
1479.48	19338.9
1480.55	19341.5
1481.61	19345.4
1482.67	19349.1
1483.73	19348.8
1484.8	19343.2
1485.86	19324.8
1486.92	19305.6
1487.98	19287.2
1489.04	19270.1
1490.1	19256.2
1491.17	19242.4
1492.23	19231
1493.29	19221.1
1494.35	19214
1495.41	19209.5
1496.47	19209
1497.53	19214.4
1498.59	19219.1
1499.65	19222.2
1500.71	19215.5
1501.77	19185.1
1502.83	19149
1503.88	19113.3
1504.94	19096.4
1506	19086.2
1507.06	19080.7
1508.12	19082.8
1509.18	19102.7
1510.23	19109.3
1511.29	19100.4
1512.35	19079.3
1513.41	19060
1514.47	19042.4
1515.52	19026.8
1516.58	19013.5
1517.64	18997.8
1518.69	18983
1519.75	18968.7
1520.81	18954.7
1521.86	18944.8
1522.92	18936.2
1523.97	18937.3
1525.03	18936.7
1526.08	18930.5
1527.14	18921.4
1528.2	18902.8
1529.25	18881.4
1530.31	18864.7
1531.36	18856.4
1532.42	18864.6
1533.47	18874.7
1534.52	18885.3
1535.58	18892.5
1536.63	18885.7
1537.69	18874.7
1538.74	18857.5
1539.79	18842.3
1540.84	18834.8
1541.9	18825.7
1542.95	18817.4
1544	18809.6
1545.06	18802.4
1546.11	18795
1547.16	18787.9
1548.21	18781.1
1549.27	18774.6
1550.32	18768.4
1551.37	18762.4
1552.42	18757.2
1553.47	18752.8
1554.52	18756.8
1555.57	18766.1
1556.62	18774.2
1557.67	18781
1558.72	18787.3
1559.77	18792.2
1560.82	18795.2
1561.87	18795.4
1562.92	18792.3
1563.97	18786.7
1565.02	18777.1
1566.07	18761.6
1567.12	18739.3
1568.17	18713.6
1569.22	18685.5
1570.27	18674.1
1571.32	18676.7
1572.36	18676.8
1573.41	18705.3
1574.46	18723.9
1575.51	18727.3
1576.56	18720.1
1577.6	18704.1
1578.65	18685.8
1579.7	18672.5
1580.74	18672.2
1581.79	18679.5
1582.84	18685.2
1583.88	18686.9
1584.93	18679.6
1585.98	18670.1
1587.02	18658
1588.07	18648.7
1589.11	18633.7
1590.16	18619.1
1591.2	18597.3
1592.25	18579.9
1593.29	18567.9
1594.34	18573.2
1595.38	18617.1
1596.43	18590.4
1597.47	18554.3
1598.52	18517
1599.56	18479
1600.6	18480.1
1601.65	18467.4
1602.69	18458.5
1603.73	18452.1
1604.78	18446.6
1605.82	18440.7
1606.86	18435.8
1607.91	18430.7
1608.95	18424.5
1609.99	18416.1
1611.03	18404.1
1612.08	18384.9
1613.12	18361.7
1614.16	18351.9
1615.2	18369.4
1616.24	18433.8
1617.28	18362.8
1618.32	18198
1619.36	18186.9
1620.41	18182.2
1621.45	18182.1
1622.49	18180.6
1623.53	18174.7
1624.57	18163.5
1625.61	18150.8
1626.65	18135.6
1627.69	18118
1628.73	18097.3
1629.76	18073.1
1630.8	18047.5
1631.84	18022.5
1632.88	18018.9
1633.92	18051.7
1634.96	18047.8
1636	18041
1637.03	18034.5
1638.07	18027.2
1639.11	18020.2
1640.15	18012.5
1641.19	18004.4
1642.22	17991.8
1643.26	17993.2
1644.3	17989.5
1645.33	17983.9
1646.37	17977.1
1647.41	17969.9
1648.44	17961.8
1649.48	17953.8
1650.52	17945.2
1651.55	17936.2
1652.59	17927.3
1653.62	17917.2
1654.66	17905.1
1655.69	17886.1
1656.73	17863.1
1657.76	17833.1
1658.8	17820.9
1659.83	17809.8
1660.87	17807.1
1661.9	17809.9
1662.93	17820.6
1663.97	17832.1
1665	17838.3
1666.04	17840.1
1667.07	17830.1
1668.1	17815.3
1669.14	17800
1670.17	17784.9
1671.2	17772.4
1672.23	17760.7
1673.27	17750.2
1674.3	17741.3
1675.33	17733.9
1676.36	17728.1
1677.39	17723.8
1678.43	17721.3
1679.46	17720.5
1680.49	17721.5
1681.52	17724.8
1682.55	17729.9
1683.58	17731.4
1684.61	17725.9
1685.64	17709.8
1686.67	17688.3
1687.7	17658.3
1688.73	17622
1689.76	17603.2
1690.79	17598
1691.82	17591.6
1692.85	17609
1693.88	17629.9
1694.91	17623
1695.94	17608.9
1696.97	17587.3
1698	17571.8
1699.02	17554.9
1700.05	17554.9
1701.08	17555.5
1702.11	17540.6
1703.14	17522.2
1704.16	17499.8
1705.19	17470.7
1706.22	17436.8
1707.25	17417.6
1708.27	17402.4
1709.3	17390
1710.33	17390
1711.35	17405.2
1712.38	17410.2
1713.41	17411.2
1714.43	17399.5
1715.46	17372.8
1716.48	17347.4
1717.51	17330
1718.53	17314.4
1719.56	17297.8
1720.58	17282.6
1721.61	17269.1
1722.63	17257.3
1723.66	17247.1
1724.68	17238
1725.71	17231.4
1726.73	17226.3
1727.75	17224
1728.78	17222.1
1729.8	17216
1730.83	17207.1
1731.85	17193.8
1732.87	17178.3
1733.89	17159.1
1734.92	17137.2
1735.94	17112.4
1736.96	17086.1
1737.98	17063.4
1739.01	17043.5
1740.03	17044.1
1741.05	17055.6
1742.07	17056.5
1743.09	17056.8
1744.12	17055.9
1745.14	17045
1746.16	17024.7
1747.18	17000.2
1748.2	16980.8
1749.22	16959.3
1750.24	16956.9
1751.26	16958.1
1752.28	16961.8
1753.3	16953.8
1754.32	16939.6
1755.34	16931.5
1756.36	16922.6
1757.38	16917.4
1758.4	16912.8
1759.42	16911.3
1760.44	16910.7
1761.45	16910
1762.47	16908.3
1763.49	16886.9
1764.51	16862
1765.53	16840.2
1766.55	16818.8
1767.56	16801.7
1768.58	16787.6
1769.6	16776.4
1770.61	16769.2
1771.63	16764.9
1772.65	16763.4
1773.67	16766
1774.68	16770.1
1775.7	16774.2
1776.72	16774.1
1777.73	16767.9
1778.75	16759.2
1779.76	16747.2
1780.78	16731.9
1781.79	16713.4
1782.81	16691.5
1783.83	16665.8
1784.84	16642.1
1785.85	16622.1
1786.87	16632.1
1787.88	16644.5
1788.9	16653.7
1789.91	16654.8
1790.93	16647.6
1791.94	16632
1792.95	16609.2
1793.97	16586.8
1794.98	16557
1796	16523.1
1797.01	16508.8
1798.02	16493.7
1799.03	16483.4
1800.05	16482.6
1801.06	16469.1
1802.07	16455.7
1803.08	16441.6
1804.1	16432.3
1805.11	16416
1806.12	16419.9
1807.13	16424.4
1808.14	16422.4
1809.15	16419
1810.17	16411.8
1811.18	16400.5
1812.19	16385.6
1813.2	16367.5
1814.21	16346.2
1815.22	16322.7
1816.23	16334.9
1817.24	16311.7
1818.25	16270.7
1819.26	16233
1820.27	16205
1821.28	16191.2
1822.29	16188
1823.3	16188.1
1824.3	16193.2
1825.31	16189.3
1826.32	16185.5
1827.33	16172.4
1828.34	16138.1
1829.35	16112.3
1830.35	16088
1831.36	16062.7
1832.37	16048.7
1833.38	16038.1
1834.38	16029.6
1835.39	16015
1836.4	16003.2
1837.41	15989.5
1838.41	15975.8
1839.42	15958.6
1840.43	15946.8
1841.43	15963.3
1842.44	16026.7
1843.44	15976.8
1844.45	15955.3
1845.46	15926.2
1846.46	15894.6
1847.47	15870.2
1848.47	15838.7
1849.48	15807.5
1850.48	15785.1
1851.49	15775.3
1852.49	15770.3
1853.49	15769.8
1854.5	15775
1855.5	15786.2
1856.51	15793.4
1857.51	15806.4
1858.51	15791.6
1859.52	15766.2
1860.52	15743.7
1861.52	15724.8
1862.53	15708.1
1863.53	15692.1
1864.53	15678.2
1865.54	15668.2
1866.54	15660.2
1867.54	15654.2
1868.54	15648
1869.54	15599.1
1870.55	15575.8
1871.55	15574.2
1872.55	15576.9
1873.55	15577.3
1874.55	15577.7
1875.55	15578.4
1876.55	15581.5
1877.55	15585.1
1878.55	15589.9
1879.55	15594.8
1880.56	15601.9
1881.55	15518.6
1882.56	15470
1883.55	15448.2
1884.55	15427.7
1885.55	15411.9
1886.55	15401.7
1887.55	15396.6
1888.55	15399.8
1889.55	15418.4
1890.55	15435.5
1891.55	15432.1
1892.55	15404.3
1893.54	15380.7
1894.54	15361
1895.54	15345.4
1896.54	15324.5
1897.54	15304.8
1898.53	15287.3
1899.53	15273.1
1900.53	15263
1901.52	15264.9
1902.52	15272.4
1903.52	15288
1904.51	15284.3
1905.51	15256.6
1906.51	15223.9
1907.5	15206.9
1908.5	15198.2
1909.49	15199.4
1910.49	15203.4
1911.49	15204.9
1912.48	15195.2
1913.48	15164.4
1914.47	15135
1915.46	15110.2
1916.46	15088.7
1917.45	15071.6
1918.45	15057.9
1919.44	15047.5
1920.44	15040.6
1921.43	15036.4
1922.43	15036.7
1923.42	15030.6
1924.41	15011.4
1925.41	14979
1926.4	14945.2
1927.39	14921.8
1928.38	14904.2
1929.38	14894.5
1930.37	14891.5
1931.36	14894.6
1932.35	14892.5
1933.35	14888.8
1934.34	14883.4
1935.33	14877.4
1936.32	14869.7
1937.31	14861.9
1938.3	14847
1939.29	14824.2
1940.29	14801.9
1941.28	14776.7
1942.27	14760.2
1943.26	14745.1
1944.25	14734.7
1945.24	14725
1946.23	14714.9
1947.22	14704.3
1948.21	14693.9
1949.2	14683.5
1950.19	14673.4
1951.18	14663.3
1952.17	14663.1
1953.16	14654.9
1954.14	14647.7
1955.13	14625.5
1956.12	14600.3
1957.11	14573.1
1958.1	14548.3
1959.09	14527.1
1960.07	14510.4
1961.06	14497.5
1962.05	14487.9
1963.04	14481.6
1964.02	14479
1965.01	14477.9
1966	14466.1
1966.99	14450.2
1967.97	14430.5
1968.96	14406.8
1969.95	14381.5
1970.93	14359.8
1971.92	14342.7
1972.9	14338
1973.89	14340.9
1974.88	14344
1975.86	14353.4
1976.85	14351.4
1977.83	14338.7
1978.82	14313.2
1979.8	14290.3
1980.79	14263.1
1981.77	14249.7
1982.76	14239.5
1983.74	14230.4
1984.72	14220.8
1985.71	14209.1
1986.69	14194.6
1987.67	14186.3
1988.66	14179.1
1989.64	14173.4
1990.62	14166.3
1991.61	14157
1992.59	14143.5
1993.57	14126
1994.56	14105.9
1995.54	14080.6
1996.52	14061.2
1997.5	14084.3
1998.49	14099.1
1999.47	14088.5
2000.45	14060.8
2001.43	14037.8
2002.41	14019.1
2003.39	14004.5
2004.38	13995.7
2005.36	13992.7
2006.34	14000.6
2007.32	13999.9
2008.3	13989.5
2009.28	13969.2
2010.26	13929.6
2011.24	13904.1
2012.22	13883.9
2013.2	13861.8
2014.18	13857.5
2015.16	13865.6
2016.14	13868.4
2017.12	13869.9
2018.1	13868.3
2019.07	13862.1
2020.05	13850.8
2021.03	13831.2
2022.01	13794.7
2022.99	13768
2023.97	13752.8
2024.95	13748.4
2025.92	13745.1
2026.9	13740.8
2027.88	13734.5
2028.86	13725.9
2029.83	13708
2030.81	13690.6
2031.79	13671.8
2032.76	13651.9
2033.74	13630.1
2034.72	13606.9
2035.69	13589.8
2036.67	13576.9
2037.65	13576.7
2038.62	13574.1
2039.6	13566.5
2040.57	13555.7
2041.55	13532.6
2042.52	13524.3
2043.5	13516.3
2044.47	13507.5
2045.45	13497.8
2046.42	13487.6
2047.4	13475.8
2048.37	13462.4
2049.35	13445
2050.32	13424.2
2051.29	13401.3
2052.27	13379
2053.24	13358.7
2054.21	13342.1
2055.19	13335.7
2056.16	13328.7
2057.13	13322.2
2058.11	13318.1
2059.08	13306.3
2060.05	13288.2
2061.02	13271.5
2062	13256.4
2062.97	13242
2063.94	13234.9
2064.91	13233.3
2065.89	13224.5
2066.86	13216.6
2067.83	13202.9
2068.8	13186.1
2069.77	13167.4
2070.74	13147.5
2071.71	13127.4
2072.68	13107.8
2073.65	13094.8
2074.62	13084.5
2075.59	13074.4
2076.56	13065.5
2077.53	13057.8
2078.5	13048
2079.47	13036.4
2080.44	13023.1
2081.41	13009.6
2082.38	12998.3
2083.35	12986.3
2084.32	12973.3
2085.29	12960.1
2086.26	12946.5
2087.23	12932.2
2088.19	12915.6
2089.16	12893.4
2090.13	12871.8
2091.1	12852.4
2092.07	12839.5
2093.03	12828.1
2094	12817.4
2094.97	12807.5
2095.94	12797.6
2096.9	12788.1
2097.87	12778.5
2098.84	12768.4
2099.8	12758.3
2100.77	12748
2101.74	12737.5
2102.7	12726.5
2103.67	12715.3
2104.63	12702.1
2105.6	12687.7
2106.56	12670.6
2107.53	12652
2108.49	12631.6
2109.46	12609.8
2110.42	12584.6
2111.39	12568.2
2112.35	12574.7
2113.32	12588.8
2114.28	12593.7
2115.25	12597.3
2116.21	12584.2
2117.17	12563.4
2118.14	12549.6
2119.1	12535.3
2120.07	12519.3
2121.03	12504.2
2121.99	12489.4
2122.96	12475.2
2123.92	12461.5
2124.88	12449.4
2125.84	12451.8
2126.81	12461.8
2127.77	12460.4
2128.73	12454
2129.69	12438
2130.65	12423
2131.62	12392.9
2132.58	12362.4
2133.54	12328
2134.5	12306.2
2135.46	12296.6
2136.42	12298.6
2137.38	12295.5
2138.34	12290.4
2139.3	12289.7
2140.26	12276.9
2141.22	12257.6
2142.18	12230.6
2143.14	12216
2144.1	12212.7
2145.06	12214.1
2146.02	12211.1
2146.98	12203.9
2147.94	12192.7
2148.9	12177.7
2149.86	12158.8
2150.82	12134.7
2151.78	12106.3
2152.74	12080.2
2153.69	12059.8
2154.65	12050.8
2155.61	12036.3
2156.57	12023.6
2157.53	12012.3
2158.48	12002.3
2159.44	11993.1
2160.4	11985.2
2161.36	11978.4
2162.31	11972.7
2163.27	11958.9
2164.23	11942.1
2165.18	11912.6
2166.14	11904.2
2167.1	11899.2
2168.05	11896.4
2169.01	11887
2169.96	11872
2170.92	11851.5
2171.88	11825.8
2172.83	11791.6
2173.79	11751.5
2174.74	11711.8
2175.7	11686.4
2176.65	11663.7
2177.6	11651.4
2178.56	11643.6
2179.51	11642.4
2180.47	11641.8
2181.42	11640.1
2182.38	11629.8
2183.33	11618.6
2184.28	11604.5
2185.24	11588.1
2186.19	11568.3
2187.14	11545.5
2188.1	11521.8
2189.05	11499.6
2190	11483.2
2190.96	11468.9
2191.91	11456.8
2192.86	11449
2193.81	11442.8
2194.76	11438.7
2195.72	11434.9
2196.67	11430.3
2197.62	11422
2198.57	11413.9
2199.52	11403.7
2200.47	11389.1
2201.43	11371.7
2202.38	11347.6
2203.33	11335.1
2204.28	11323.9
2205.23	11318.7
2206.18	11328
2207.13	11336.4
2208.08	11335.9
2209.03	11331.3
2209.98	11281.3
2210.93	11235.5
2211.88	11222.3
2212.83	11207.1
2213.78	11198.9
2214.73	11193.9
2215.67	11189.5
2216.62	11188.9
2217.57	11183.6
2218.52	11174.4
2219.47	11160.5
2220.42	11142
2221.37	11123.4
2222.31	11107.2
2223.26	11096.7
2224.21	11090.7
2225.16	11087.5
2226.1	11087
2227.05	11089.1
2228	11094.2
2228.94	11101.6
2229.89	11102.2
2230.84	11090
2231.78	11075
2232.73	11063
2233.68	11054
2234.62	11046.2
2235.57	11039.2
2236.51	11033.3
2237.46	11027.8
2238.41	11022.8
2239.35	11018.1
2240.3	11008.5
2241.24	10998.5
2242.19	10988.9
2243.13	10980.1
2244.07	10974.4
2245.02	10970.5
2245.96	10968.2
2246.91	10967.1
2247.85	10967.5
2248.8	10967
2249.74	10962.2
2250.68	10952.3
2251.63	10945.9
2252.57	10945.2
2253.51	10944.5
2254.46	10940.2
2255.4	10933.5
2256.34	10925.4
2257.28	10909
2258.23	10894.4
2259.17	10881.4
2260.11	10870.4
2261.05	10863.2
2262	10857.2
2262.94	10853.8
2263.88	10851.5
2264.82	10849.8
2265.76	10848.6
2266.7	10841.1
2267.64	10831.3
2268.58	10818.8
2269.53	10805.3
2270.47	10791.7
2271.41	10781.5
2272.35	10779.2
2273.29	10782.5
2274.23	10790.2
2275.17	10802.5
2276.11	10808.3
2277.05	10810.2
2277.99	10806.6
2278.93	10796.8
2279.86	10785.2
2280.8	10775.7
2281.74	10764.5
2282.68	10757.9
2283.62	10754.5
2284.56	10755.1
2285.5	10755
2286.44	10753.5
2287.37	10750.5
2288.31	10746.1
2289.25	10741.2
2290.19	10736.1
2291.12	10731.5
2292.06	10727.7
2293	10725.6
2293.94	10722.4
2294.87	10716.2
2295.81	10708.7
2296.75	10701.7
2297.68	10699.1
2298.62	10687.7
2299.55	10677.4
2300.49	10672.7
2301.43	10672.5
2302.36	10674.6
2303.3	10675.9
2304.23	10676.7
2305.17	10670.8
2306.1	10658.7
2307.04	10645.6
2307.98	10628.2
2308.91	10607.6
2309.84	10584.6
2310.78	10563.7
2311.71	10549.5
2312.65	10541.8
2313.58	10537.5
2314.52	10535.8
2315.45	10536.8
2316.38	10540.3
2317.32	10543.7
2317.72	10545.2
2318.66	10540.8
2319.6	10534.1
2320.54	10510.4
2321.48	10492.2
2322.41	10477
2323.35	10452
2324.29	10436.5
2325.23	10423
2326.16	10417.3
2327.1	10414.3
2328.04	10403.6
2328.97	10392.4
2329.91	10370.3
2330.85	10351.7
2331.78	10337.8
2332.72	10329.7
2333.66	10325.9
2334.59	10323.4
2335.53	10321.6
2336.46	10321.8
2337.4	10320.5
2338.33	10318.6
2339.27	10314.9
2340.2	10307.8
2341.14	10288.2
2342.07	10265
2343.01	10249.1
2343.94	10236.8
2344.88	10231.4
2345.81	10229.5
2346.75	10225.5
2347.68	10223.6
2348.61	10213.5
2349.55	10194.3
2350.48	10177.2
2351.41	10163.5
2352.35	10152.7
2353.28	10144.1
2354.21	10137.7
2355.15	10133.6
2356.08	10132
2357.01	10132.8
2357.94	10135.9
2358.88	10136.6
2359.81	10130.4
2360.74	10123.3
2361.67	10114.3
2362.6	10101.3
2363.54	10086.2
2364.47	10070.7
2365.4	10053.8
2366.33	10055.1
2367.26	10067.5
2368.19	10086.6
2369.12	10100.3
2370.05	10102.7
2370.98	10097
2371.91	10086.1
2372.84	10078.6
2373.77	10068.9
2374.7	10056.2
2375.63	10044.1
2376.56	10031
2377.49	10018.5
2378.42	10008.2
2379.35	10002.2
2380.28	10003.6
2381.21	10008
2382.14	10008.5
2383.07	9992.51
2384	9965.87
2384.92	9943.01
2385.85	9934.11
2386.78	9940.06
2387.71	9950.18
2388.64	9952.07
2389.56	9953.06
2390.49	9950.97
2391.42	9946
2392.35	9936.63
2393.27	9926.9
2394.2	9917.17
2395.13	9907.57
2396.05	9899.6
2396.98	9891.17
2397.91	9882.89
2398.83	9875.08
2399.76	9867.4
2400.69	9859.51
2401.61	9850.9
2402.54	9837.22
2403.46	9813.79
2404.39	9809.62
2405.31	9813.68
2406.24	9836.91
2407.17	9854.31
2408.09	9811
2409.01	9774.86
2409.94	9765.91
2410.86	9762.11
2411.79	9761.79
2412.71	9761.13
2413.64	9761.41
2414.56	9760.98
2415.49	9754.69
2416.41	9743.43
2417.33	9726.41
2418.26	9709.2
2419.18	9691.4
2420.1	9674.3
2421.03	9657.92
2421.95	9642.19
2422.87	9627.57
2423.79	9614.2
2424.72	9602.4
2425.64	9592.17
2426.56	9585.14
2427.48	9566.38
2428.41	9528.64
2429.33	9510.98
2430.25	9492.47
2431.17	9523.6
2432.09	9545.46
2433.01	9548.44
2433.93	9531.97
2434.86	9507.28
2435.78	9482.08
2436.7	9469.87
2437.62	9456.42
2438.54	9445.8
2439.46	9438.31
2440.38	9433.61
2441.3	9433.64
2442.22	9435.52
2443.14	9433.03
2444.06	9427.59
2444.98	9413.94
2445.9	9400.64
2446.82	9385.95
2447.73	9369.64
2448.65	9352.23
2449.57	9334.86
2450.49	9319.09
2451.41	9306.29
2452.33	9297.62
2453.25	9291.91
2454.17	9289.18
2455.08	9290.58
2456	9296.75
2456.92	9300.9
2457.84	9300.72
2458.75	9289.56
2459.67	9278.25
2460.59	9267.17
2461.51	9255.58
2462.42	9242.97
2463.34	9230
2464.26	9216.55
2465.17	9205.91
2466.09	9203.6
2467	9222.51
2467.92	9200.87
2468.84	9184.8
2469.75	9030.7
2470.67	9200.2
2471.58	9208.2
2472.5	9204.86
2473.42	9182.66
2474.33	9151.58
2475.25	9090.49
2476.16	9065.24
2477.08	9085.33
2477.99	9072.75
2478.9	9068.27
2479.82	9063.07
2480.73	9061.6
2481.65	9067.36
2482.56	9072.46
2483.47	9076.25
2484.39	9078.11
2485.3	9070.97
2486.22	9062.33
2487.13	9050.83
2488.04	9035.11
2488.96	9021.04
2489.87	9021.3
2490.78	9020.07
2491.69	9016.27
2492.61	9009.75
2493.52	8999.42
2494.43	8989.97
2495.34	8981.01
2496.25	8971.6
2497.17	8963.37
2498.08	8964.59
2498.99	8963.22
2499.9	8960.16
2500.81	8955.69
2501.72	8949.67
2502.63	8937.4
2503.55	8926.54
2504.46	8915.67
2505.37	8912.74
2506.28	8916.63
2507.19	8924.88
2508.1	8930.52
2509.01	8932.57
2509.92	8932.24
2510.83	8917.43
2511.74	8899.2
2512.65	8883.54
2513.56	8868.88
2514.47	8858.34
2515.37	8850.12
2516.28	8843.9
2517.19	8839.71
2518.1	8837.89
2519.01	8837.99
2519.92	8840.09
2520.83	8842.92
2521.73	8841.73
2522.64	8837.91
2523.55	8823.97
2524.46	8811.44
2525.37	8794.17
2526.27	8778.42
2527.18	8769.62
2528.09	8766.04
2529	8762.5
2529.9	8758.6
2530.81	8754.61
2531.72	8750.5
2532.62	8746.1
2533.53	8741.02
2534.44	8731.55
2535.34	8726.7
2536.25	8728.01
2537.15	8727.91
2538.06	8715.52
2538.96	8690.83
2539.87	8683.2
2540.78	8677.23
2541.68	8670.61
2542.59	8664.06
2543.49	8661.36
2544.4	8654.35
2545.3	8641.07
2546.21	8624.47
2547.11	8607.24
2548.01	8594.9
2548.92	8583.6
2549.82	8573.59
2550.73	8566.03
2551.63	8559.78
2552.53	8555.51
2553.44	8552.72
2554.34	8551.48
2555.24	8550.82
2556.15	8547.71
2557.05	8540.13
2557.95	8521.87
2558.86	8506.02
2559.76	8491.1
2560.66	8476.58
2561.56	8466.06
2562.46	8447.63
2563.37	8440.35
2564.27	8431.92
2565.17	8438.48
2566.07	8440.91
2566.97	8442.99
2567.88	8441.94
2568.78	8433.03
2569.68	8419.29
2570.58	8400.93
2571.48	8378.82
2572.38	8363.81
2573.28	8347.2
2574.18	8340.78
2575.08	8335.64
2575.98	8334.36
2576.88	8334.22
2577.78	8334.26
2578.68	8332.86
2579.58	8321.08
2580.48	8312.04
2581.38	8302.38
2582.28	8290.92
2583.18	8278.51
2584.08	8265.17
2584.98	8252.53
2585.88	8241.85
2586.77	8232.29
2587.67	8227
2588.57	8221.52
2589.47	8220.07
2590.37	8221.37
2591.27	8220.89
2592.16	8214.41
2593.06	8199.15
2593.96	8188.52
2594.86	8179.44
2595.75	8169.82
2596.65	8159.73
2597.55	8149.89
2598.45	8140.3
2599.34	8132.13
2600.24	8110.28
2601.13	8090.32
2602.03	8079.1
2602.93	8074.26
2603.82	8078.66
2604.72	8079.28
2605.62	8072.84
2606.51	8057.3
2607.41	8038.44
2608.3	8021.01
2609.2	8008.69
2610.09	7999.69
2610.99	7992.68
2611.88	7988.1
2612.78	7986.85
2613.67	7988.06
2614.57	7992.34
2615.46	7996.97
2616.36	7997.3
2617.25	7995.1
2618.14	7989.34
2619.04	7980.95
2619.93	7970.18
2620.83	7955.75
2621.72	7945.88
2622.61	7951.59
2623.5	7955.27
2624.4	7956.57
2625.29	7954.77
2626.18	7953.06
2627.08	7951
2627.97	7935.26
2628.86	7917.59
2629.75	7899.28
2630.65	7889.01
2631.54	7876.23
2632.43	7862.08
2633.32	7846.17
2634.21	7829.16
2635.11	7810.22
2636	7789.32
2636.89	7764.52
2637.78	7741.01
2638.67	7720.66
2639.56	7708.82
2640.45	7713.3
2641.34	7714.92
2642.23	7716.76
2643.12	7714.02
2644.01	7711.44
2644.9	7702.77
2645.79	7692.28
2646.68	7679.4
2647.57	7667.7
2648.46	7656.58
2649.35	7651.11
2650.24	7645.7
2651.13	7641.23
2652.02	7636.93
2652.91	7632.55
2653.8	7627.33
2654.69	7622.04
2655.58	7616.74
2656.46	7611.61
2657.35	7606.75
2658.24	7602.38
2659.13	7598.48
2660.02	7594.39
2660.9	7589.94
2661.79	7583.53
2662.68	7576.36
2663.57	7568.48
2664.45	7559.95
2665.34	7550.74
2666.23	7541.58
2667.11	7533.25
2668	7525.25
2668.89	7516.69
2669.77	7505.77
2670.66	7495.87
2671.55	7486.47
2672.43	7477.56
2673.32	7468.87
2674.21	7460.23
2675.09	7455.28
2675.98	7452.64
2676.86	7450.42
2677.75	7444.54
2678.63	7409.59
2679.52	7402.15
2680.4	7396.13
2681.29	7409.11
2682.17	7413.02
2683.06	7408.34
2683.94	7403.2
2684.82	7359.93
2685.71	7338.59
2686.59	7383.53
2687.48	7384.18
2688.36	7373.14
2689.24	7357.96
2690.13	7340.88
2691.01	7304.76
2691.89	7279.69
2692.78	7277.66
2693.66	7330.98
2694.54	7253.43
2695.43	7225.38
2696.31	7205.04
2697.19	7202.83
2698.07	7193.17
2698.96	7187.36
2699.84	7185.03
2700.72	7183.89
2701.6	7183.15
2702.48	7183.22
2703.36	7183.53
2704.25	7184.86
2705.13	7178.35
2706.01	7171.78
2706.89	7165.63
2707.77	7161.26
2708.65	7161.71
2709.53	7159.52
2710.41	7142.04
2711.29	7124.8
2712.17	7105.78
2713.05	7099.11
2713.93	7092.81
2714.81	7095.89
2715.69	7093.81
2716.57	7085.23
2717.45	7071.11
2718.33	7060.1
2719.21	7040.25
2720.09	7020.38
2720.97	7004.36
2721.85	7003.91
2722.73	7010.36
2723.61	7019.35
2724.48	7027.47
2725.36	7033.22
2726.24	7036.14
2727.12	7032.93
2728	7023.81
2728.88	7015.11
2729.75	7007.75
2730.63	7000.84
2731.51	6994.09
2732.39	6985.99
2733.26	6977.25
2734.14	6967.44
2735.02	6955.6
2735.89	6942.73
2736.77	6929.77
2737.65	6924.32
2738.52	6915.23
2739.4	6903.26
2740.28	6889.43
2741.15	6875.72
2742.03	6865.38
2742.9	6859.19
2743.78	6852.59
2744.65	6856.19
2745.53	6860.32
2746.41	6865.95
2747.28	6871.19
2748.16	6873.43
2749.03	6872.06
2749.91	6868.92
2750.78	6863.54
2751.66	6855.06
2752.53	6844.21
2753.4	6831.09
2754.28	6816.33
2755.15	6829.54
2756.02	6848.15
2756.9	6854.89
2757.77	6840.4
2758.65	6814.95
2759.52	6801.73
2760.39	6786.84
2761.27	6773.17
2762.14	6762.55
2763.01	6754.09
2763.88	6749.28
2764.76	6747.85
2765.63	6749.05
2766.5	6752.01
2767.37	6752.84
2768.25	6747.76
2769.12	6737.9
2769.99	6720.38
2770.86	6712.94
2771.73	6707.35
2772.61	6702.87
2773.48	6699.32
2774.35	6695.94
2775.22	6692.66
2776.09	6688.29
2776.96	6678.66
2777.83	6670.46
2778.7	6661.37
2779.57	6651.84
2780.44	6643.09
2781.31	6634.9
2782.18	6626.82
2783.05	6619.35
2783.92	6612.13
2784.79	6605.43
2785.66	6599.03
2786.53	6593.76
2787.4	6589.53
2788.27	6586.13
2789.14	6583.25
2790.01	6577.95
2790.88	6566.39
2791.75	6550.06
2792.62	6534.77
2793.48	6543.16
2794.35	6556.87
2795.22	6572.45
2796.09	6535.37
2796.96	6501.45
2797.82	6496.66
2798.69	6485.03
2799.56	6476.98
2800.43	6470.95
2801.29	6464.88
2802.16	6460.36
2803.03	6457.7
2803.9	6456.79
2804.76	6457.81
2805.63	6460.92
2806.5	6465.61
2807.36	6469.59
2808.23	6467.92
2809.09	6460.56
2809.96	6451.65
2810.83	6441.51
2811.69	6430.01
2812.56	6416.65
2813.42	6402.24
2814.29	6387.51
2815.15	6373.43
2816.02	6359.35
2816.88	6346.25
2817.75	6337.26
2818.61	6335.26
2819.48	6348.42
2820.34	6360.44
2821.21	6363.39
2822.07	6377.72
2822.94	6378.82
2823.8	6365.82
2824.66	6338.84
2825.53	6318.81
2826.39	6309.14
2827.26	6302.71
2828.12	6300.2
2828.98	6304.64
2829.85	6298.95
2830.71	6290.45
2831.57	6277.73
2832.43	6255.82
2833.3	6247.55
2834.16	6240.63
2835.02	6241.11
2835.88	6241.02
2836.75	6245.02
2837.61	6248.58
2838.47	6252.01
2839.33	6254.15
2840.19	6254.8
2841.06	6249.41
2841.92	6243.99
2842.78	6234.63
2843.64	6223.59
2844.5	6212.03
2845.36	6200.03
2846.22	6188.85
2847.08	6179.54
2847.94	6171.46
2848.81	6164.78
2849.67	6159.71
2850.53	6156.22
2851.39	6154.52
2852.25	6154.25
2853.11	6155.54
2853.97	6157.19
2854.82	6154.72
2855.68	6147.13
2856.54	6137.57
2857.4	6131.03
2858.26	6129.02
2859.12	6124.2
2859.98	6114.08
2860.84	6099.23
2861.7	6086.86
2862.56	6068.09
2863.41	6047.37
2864.27	6035
2865.13	6037
2865.99	6042.7
2866.85	6047.35
2867.7	6051.61
2868.56	6050.45
2869.42	6047.59
2870.28	6043.19
2871.13	6036.14
2871.99	6027.35
2872.85	6017.82
2873.7	6006.78
2874.56	6006.42
2875.42	6016.51
2876.27	6019.8
2877.13	6017.65
2877.99	6014.63
2878.84	6008.59
2879.7	5999.92
2880.56	5991.2
2881.41	5981.34
2882.27	5969.35
2883.12	5955.96
2883.98	5943.53
2884.83	5933.71
2885.69	5931.98
2886.54	5931.71
2887.4	5929.82
2888.25	5924.83
2889.11	5916.99
2889.96	5906.12
2890.82	5891.9
2891.67	5883.02
2892.52	5872.74
2893.38	5873.31
2894.23	5870.09
2895.09	5861.41
2895.94	5784.01
2896.79	5894.37
2897.65	5865.95
2898.5	5856.69
2899.35	5845.8
2900.21	5841.19
2901.06	5834.78
2901.91	5827.08
2902.76	5817.79
2903.62	5806.61
2904.47	5794.03
2905.32	5783.13
2906.17	5771.54
2907.03	5763.88
2907.88	5757.57
2908.73	5752.93
2909.58	5750.18
2910.43	5749.07
2911.28	5751.21
2912.14	5750.56
2912.99	5743.19
2913.84	5734.12
2914.69	5721.36
2915.54	5712.9
2916.39	5705.97
2917.24	5701.29
2918.09	5696.19
2918.94	5698.36
2919.79	5704.25
2920.64	5704.24
2921.49	5699.1
2922.34	5683.78
2923.19	5665.42
2924.04	5645.57
2924.89	5625.36
2925.74	5606.87
2926.59	5597.95
2927.44	5597.4
2928.29	5598.58
2929.14	5600.99
2929.98	5604.12
2930.83	5604.07
2931.68	5600.29
2932.53	5593.3
2933.38	5583.26
2934.23	5574.96
2935.07	5564.86
2935.92	5551.68
2936.77	5540.61
2937.62	5545.03
2938.47	5544.29
2939.31	5541.21
2940.16	5540.41
2941.01	5539.25
2941.85	5537.2
2942.7	5534.2
2943.55	5529.58
2944.39	5524.07
2945.24	5513.89
2946.09	5504.06
2946.93	5493.49
2947.78	5482.9
2948.63	5475.49
2949.47	5467.95
2950.32	5469.87
2951.16	5471.82
2952.01	5473.95
2952.85	5475.45
2953.7	5474.58
2954.55	5472.85
2955.39	5470.46
2956.24	5466.57
2957.08	5461.79
2957.92	5453.31
2958.77	5440.82
2959.61	5424.47
2960.46	5411.93
2961.3	5406.82
2962.15	5408.4
2962.99	5416.38
2963.83	5407.72
2964.68	5396.47
2965.52	5383.56
2966.37	5368.63
2967.21	5352.35
2968.05	5337.12
2968.9	5329.05
2969.74	5327.41
2970.58	5331.28
2971.42	5337.45
2972.27	5340.37
2973.11	5338.51
2973.95	5336.95
2974.79	5334.24
2975.64	5331.01
2976.48	5327.49
2977.32	5323.75
2978.16	5320.12
2979	5316.29
2979.85	5313.15
2980.69	5309.75
2981.53	5306.09
2982.37	5301.49
2983.21	5294.72
2984.05	5282.37
2984.89	5278.82
2985.73	5283.34
2986.57	5284.54
2987.41	5281.63
2988.25	5273.53
2989.1	5261.69
2989.94	5250.08
2990.77	5243.78
2991.62	5235.5
2992.45	5228.09
2993.29	5219.35
2994.13	5211.32
2994.97	5203.77
2995.81	5198.82
2996.65	5196.16
2997.49	5199.02
2998.33	5191.38
2999.17	5229.53
