200.833	23260.5
202.102	23226.9
203.371	23222.5
204.639	23218.9
205.907	23216.4
207.175	23226
208.442	23247.1
209.71	23271
210.977	23295.9
212.244	23322.2
213.511	23350.1
214.777	23376.9
216.042	23405
217.309	23433.2
218.575	23461.2
219.84	23496.9
221.106	23536.5
222.371	23574
223.635	23590.8
224.9	23619.8
226.165	23651.7
227.429	23689.7
228.694	23721.9
229.956	23791.4
231.22	23875.6
232.484	23958.4
233.747	24001
235.011	24015.7
236.272	24019.7
237.535	24054.8
238.798	24101
240.06	24150.4
241.321	24181.6
242.583	24207
243.845	24230.2
245.105	24247.9
246.367	24267
247.628	24300.2
248.888	24335.7
250.149	24366.6
251.409	24392.2
252.67	24410.1
253.928	24417.6
255.189	24417.9
256.447	24429.6
257.707	24453.3
258.966	24488.3
260.224	24528
261.483	24537.2
262.742	24549.7
263.999	24555.4
265.257	24573.8
266.514	24605.2
267.772	24639.2
269.028	24673.1
270.286	24700.3
271.543	24721
272.799	24736.3
274.056	24750.3
275.311	24759.4
276.568	24773.5
277.823	24805.9
279.079	24845.2
280.333	24888.1
281.589	24936.2
282.843	24974.1
284.099	24987.2
285.352	24955.3
286.607	24986.5
287.86	25050.3
289.114	25113
290.368	25164.5
291.621	25204.7
292.875	25233.7
294.127	25253
295.38	25264.3
296.632	25266.3
297.884	25258.5
299.137	25246.1
300.388	25245
301.641	25251.7
302.891	25267.2
304.142	25292
305.394	25313.4
306.644	25334.1
307.894	25350.8
309.146	25365.6
310.395	25378.5
311.645	25392.1
312.895	25401.2
314.144	25410.9
315.393	25425.6
316.642	25450.6
317.892	25489.8
319.14	25526.8
320.388	25557.8
321.637	25575.1
322.885	25589.4
324.132	25599.7
325.38	25606.2
326.628	25609.7
327.875	25618.5
329.122	25645.2
330.368	25686.7
331.614	25725.4
332.862	25764.3
334.108	25801.9
335.353	25840.3
336.599	25871.3
337.844	25875
339.089	25868.3
340.335	25856
341.58	25859.4
342.824	25842.1
344.068	25830.9
345.312	25835.4
346.556	25851.7
347.8	25929.9
349.043	25985.6
350.286	26019.3
351.53	26035.6
352.774	26017
354.016	26038.4
355.259	26059.7
356.501	26073.4
357.743	26079.9
358.985	26070.9
360.227	26054.8
361.468	26039.9
362.709	26023
363.95	26016.1
365.191	26028.4
366.432	26047.6
367.672	26065.3
368.912	26088.3
370.152	26117.6
371.392	26118.4
372.632	26125.4
373.871	26126.1
375.11	26127.1
376.348	26130.1
377.587	26142.4
378.825	26156.4
380.064	26173.9
381.302	26194.3
382.54	26220
383.778	26245.6
385.016	26273.6
386.253	26273.5
387.489	26278.3
388.726	26286.6
389.963	26297.7
391.199	26309.7
392.436	26322.7
393.672	26339.6
394.907	26358.8
396.142	26381.1
397.378	26404
398.614	26426.2
399.849	26446.8
401.082	26463.8
402.317	26482.6
403.552	26501.4
404.786	26519.7
406.019	26539.5
407.253	26558.5
408.487	26573.3
409.721	26582.5
410.953	26553.2
412.186	26555.4
413.419	26568.6
414.651	26587.8
415.883	26613.1
417.116	26623
418.347	26623.6
419.579	26617.9
420.811	26611.5
422.041	26606.4
423.272	26601.7
424.504	26601.3
425.733	26609.9
426.964	26625
428.194	26641.4
429.424	26655.7
430.654	26677.1
431.883	26694.5
433.113	26698.1
434.341	26691.2
435.571	26682.8
436.799	26688.3
438.028	26682.4
439.257	26700.4
440.484	26722.7
441.713	26752.5
442.94	26795.5
444.168	26808.5
445.394	26807.6
446.622	26733.3
447.848	26804.8
449.076	26836.7
450.301	26831.3
451.528	26843.1
452.754	26846.6
453.979	26851.9
455.205	26860.2
456.43	26868.4
457.656	26877.1
458.88	26885.5
460.106	26893
461.33	26896.9
462.554	26879.5
463.779	26874.6
465.002	26876.7
466.225	26884.8
467.45	26897.2
468.672	26912.6
469.895	26919.8
471.119	26920
472.341	26914.4
473.563	26903.9
474.786	26891.3
476.008	26892.8
477.229	26898.2
478.452	26905.1
479.673	26912.9
480.894	26924.5
482.115	26915.5
483.337	26894.3
484.557	26869
485.777	26843.9
486.997	26819.3
488.218	26797.9
489.438	26785.9
490.657	26773
491.876	26761.4
493.096	26750.8
494.315	26740.9
495.533	26731.8
496.752	26724.2
497.97	26720.3
499.188	26721.6
500.407	26729.1
501.625	26742.4
502.842	26762
504.059	26778.5
505.276	26793.3
506.493	26803.3
507.71	26796
508.926	26776.8
510.142	26765.3
511.358	26762.6
512.575	26767.9
513.791	26780.8
515.006	26814.6
516.222	26847.8
517.437	26871.5
518.651	26885.2
519.866	26878.6
521.081	26876.3
522.295	26880.1
523.509	26889.8
524.723	26903.2
525.937	26938.6
527.15	26991.6
528.363	27066.2
529.576	27115.7
530.789	27116.3
532.002	27111.7
533.215	26993.2
534.426	27021.7
535.638	27031
536.85	27056.5
538.061	27080.9
539.273	27102.7
540.484	27123.1
541.695	27134.5
542.906	27130.8
544.117	27124.4
545.327	27095.3
546.537	27059.3
547.747	27054.5
548.957	27063.5
550.167	27063.5
551.377	27087.5
552.585	27122.6
553.794	27138.1
555.003	27143.8
556.212	27135.1
557.421	27118.4
558.628	27100.5
559.836	27085.6
561.044	27074.1
562.252	27064.8
563.458	27060.2
564.666	27054.8
565.873	27053
567.08	27054.8
568.286	27067.5
569.493	27118.7
570.699	27153.7
571.904	27181.6
573.111	27185.9
574.317	27156
575.521	27140.6
576.727	27123.1
577.932	27111
579.136	27108.6
580.341	27107.1
581.544	27106.1
582.749	27105.7
583.954	27105.4
585.156	27104.9
586.361	27104.2
587.563	27104.8
588.767	27106
589.97	27115
591.172	27155.4
592.375	27154
593.577	27152.6
594.78	27158.8
595.981	27172.1
597.183	27191.1
598.384	27204.4
599.586	27210.2
600.786	27209.5
601.988	27203.4
603.188	27188
604.389	27169.6
605.589	27151.2
606.79	27132.2
607.989	27113.3
609.188	27093.7
610.389	27073.6
611.587	27053
612.787	27032
613.986	27010.4
615.184	26989.2
616.383	26968.5
617.581	26949
618.78	26930.9
619.977	26914.2
621.174	26898.9
622.373	26884.8
623.57	26871.6
624.766	26859.5
625.964	26841
627.16	26812.3
628.356	26766.6
629.554	26729
630.749	26711.6
631.945	26701
633.14	26696.1
634.337	26698.2
635.532	26707.5
636.726	26723.7
637.921	26743.9
639.117	26761
640.311	26771
641.505	26775.4
642.699	26761
643.892	26743
645.087	26722.4
646.28	26701.3
647.473	26704.2
648.666	26706.1
649.859	26713.8
651.051	26722.1
652.245	26734.2
653.437	26744.9
654.629	26753.9
655.821	26762.2
657.012	26772.3
658.204	26780.9
659.395	26782.8
660.586	26768
661.777	26756
662.967	26757.2
664.158	26761.2
665.349	26765.6
666.539	26769
667.729	26769.6
668.919	26764.9
670.109	26759.2
671.298	26761.5
672.487	26773.1
673.676	26795.1
674.865	26810.6
676.053	26825.1
677.242	26838.4
678.43	26841.4
679.616	26829.6
680.804	26812.3
681.992	26771.1
683.179	26779.3
684.366	26791.4
685.554	26795.1
686.74	26800.9
687.927	26802.2
689.114	26799
690.3	26791.7
691.486	26780.5
692.671	26765.5
693.856	26746.2
695.042	26723.2
696.227	26697.1
697.413	26671.5
698.598	26673.8
699.781	26658.7
700.966	26638.5
702.15	26615.9
703.334	26592.5
704.518	26578.5
705.701	26564.2
706.885	26552.5
708.068	26543.5
709.252	26537.5
710.433	26536.8
711.616	26561.3
712.799	26588.3
713.98	26589
715.163	26559.1
716.345	26529.3
717.527	26502.4
718.707	26481.9
719.889	26471.5
721.071	26464
722.25	26462.9
723.432	26466.6
724.611	26476.3
725.792	26491.1
726.972	26508.5
728.151	26525.9
729.332	26535.4
730.512	26542.1
731.69	26541.3
732.87	26535.3
734.048	26522.4
735.227	26521
736.405	26525.1
737.584	26537.4
738.761	26550.2
739.94	26570.8
741.117	26599.2
742.295	26634.8
743.471	26621.7
744.649	26604.5
745.825	26593.7
747.003	26590.1
748.179	26585.9
749.356	26579.1
750.531	26574.3
751.708	26572.2
752.883	26573
754.059	26577.8
755.234	26584.4
756.409	26593.6
757.585	26605.2
758.759	26618.3
759.934	26628.5
761.108	26629.4
762.282	26627.5
763.456	26619.5
764.63	26598.2
765.803	26571.9
766.977	26557.6
768.15	26548.7
769.323	26535.8
770.496	26531.3
771.668	26509.8
772.841	26479
774.014	26445.9
775.185	26410.5
776.357	26372.6
777.528	26330.7
778.701	26298.6
779.872	26285.9
781.042	26283.2
782.213	26290
783.383	26307.3
784.555	26319.1
785.725	26318.7
786.895	26304.4
788.064	26279.6
789.234	26248.2
790.404	26224
791.573	26198.7
792.742	26177.1
793.911	26159.2
795.08	26143.6
796.248	26131.8
797.416	26124.3
798.584	26121.6
799.753	26126
800.921	26135.7
802.088	26142.6
803.256	26142.1
804.423	26122.9
805.59	26100.4
806.756	26069.6
807.923	26059.7
809.089	26066.9
810.256	26094.6
811.422	26129
812.587	26142.3
813.753	26145
814.918	26136.8
816.084	26115.7
817.249	26109.3
818.414	26113.5
819.578	26123.6
820.743	26141.7
821.907	26163.4
823.072	26188.2
824.236	26206.3
825.399	26231.3
826.562	26257.2
827.725	26270.8
828.889	26268.6
830.052	26245.3
831.215	26221.1
832.377	26202.8
833.54	26196.6
834.701	26233.9
835.863	26252.9
837.025	26265
838.187	26265.1
839.349	26214.6
840.51	26181.4
841.67	26153.8
842.831	26126
843.992	26116.6
845.153	26113.3
846.312	26117.4
847.473	26127.2
848.633	26141
849.793	26155.7
850.951	26137.8
852.111	26125.8
853.27	26101.8
854.428	26071.7
855.588	26039.7
856.747	26007
857.904	25990.4
859.063	25980.2
860.221	25969.4
861.378	25952.8
862.536	25931.2
863.694	25908.2
864.85	25884.9
866.008	25862.4
867.164	25840.8
868.321	25819.4
869.478	25799.2
870.633	25780.8
871.79	25769.5
872.945	25761.2
874.101	25750.2
875.256	25737
876.412	25720
877.566	25699.5
878.722	25677.4
879.876	25655.2
881.031	25635.1
882.185	25617
883.34	25601.2
884.493	25589.2
885.647	25583.5
886.8	25582.1
887.954	25580.7
889.107	25578.4
890.261	25573
891.413	25564.7
892.565	25544.5
893.718	25524.9
894.87	25504.4
896.023	25494.2
897.174	25512.2
898.326	25535.5
899.478	25546.3
900.629	25560.8
901.779	25554.7
902.931	25537.3
904.081	25516.3
905.231	25510.9
906.383	25500.4
907.532	25519.8
908.682	25552.8
909.831	25565.8
910.982	25573
912.131	25574.6
913.28	25570
914.429	25557.8
915.578	25547
916.727	25550.8
917.875	25571.3
919.023	25606.5
920.171	25624.3
921.32	25623.7
922.467	25621.3
923.614	25612.8
924.761	25598.7
925.908	25576.6
927.055	25555.3
928.203	25559.9
929.349	25564.5
930.496	25567.2
931.642	25569.7
932.787	25573.2
933.933	25576.7
935.079	25573.8
936.224	25560.9
937.369	25530
938.514	25499.2
939.659	25478.2
940.804	25464.4
941.948	25457.8
943.092	25457.2
944.236	25464.5
945.38	25466.7
946.524	25459.8
947.667	25446
948.811	25419.4
949.954	25389.9
951.097	25367.2
952.24	25346.9
953.383	25329.5
954.525	25319.4
955.667	25318.7
956.81	25325.4
957.952	25316.9
959.093	25307.7
960.235	25297.6
961.376	25286.2
962.516	25272.4
963.658	25259
964.798	25243.6
965.939	25227.1
967.08	25208.9
968.22	25188
969.359	25163.9
970.499	25140.2
971.639	25125.8
972.779	25122.1
973.918	25119.2
975.056	25119.9
976.195	25125
977.334	25134.2
978.473	25146.9
979.61	25160.8
980.749	25177.3
981.887	25190.3
983.024	25161.9
984.162	25149
985.3	25127
986.437	25110.8
987.573	25101.6
988.711	25098.2
989.848	25097.5
990.983	25109.2
992.12	25124.1
993.255	25141.2
994.392	25143.1
995.528	25134.2
996.662	25136.8
997.798	25143.4
998.933	25152.9
1000.07	25168.5
1001.2	25182.4
1002.34	25184.1
1003.47	25182.3
1004.61	25175.7
1005.74	25177.9
1006.87	25182.5
1008.01	25186.2
1009.14	25175.4
1010.27	25159.9
1011.41	25154.9
1012.54	25145.1
1013.67	25136
1014.81	25130
1015.94	25137.4
1017.07	25145.3
1018.2	25137
1019.33	25127.1
1020.47	25114.8
1021.6	25100.1
1022.73	25082.3
1023.86	25060.7
1024.99	25036.2
1026.12	25038.1
1027.25	25034.5
1028.38	25020.4
1029.51	25000.1
1030.64	24975.8
1031.77	24944.9
1032.9	24911.4
1034.03	24876.9
1035.16	24844.6
1036.29	24817.8
1037.42	24793.4
1038.55	24771.9
1039.67	24755.2
1040.8	24743
1041.93	24736.4
1043.06	24739.2
1044.19	24751.8
1045.31	24764.9
1046.44	24729.5
1047.57	24714.2
1048.69	24702.6
1049.82	24688.2
1050.95	24671.1
1052.08	24652.1
1053.2	24632.2
1054.33	24610.9
1055.45	24589.2
1056.58	24567.3
1057.7	24546.1
1058.83	24526.1
1059.95	24508.1
1061.08	24492.4
1062.2	24479.6
1063.33	24473.6
1064.45	24462.4
1065.58	24437
1066.7	24468.6
1067.83	24505.6
1068.95	24534.5
1070.07	24559.3
1071.2	24578.5
1072.32	24564.5
1073.44	24527
1074.56	24499.5
1075.69	24474.8
1076.81	24456.6
1077.93	24446.4
1079.05	24441.6
1080.17	24442.5
1081.3	24449.1
1082.42	24461.2
1083.54	24477.9
1084.66	24494.7
1085.78	24515.5
1086.9	24533.8
1088.02	24543.3
1089.14	24552.7
1090.26	24558.2
1091.38	24535.7
1092.5	24520.1
1093.62	24507.4
1094.74	24501.6
1095.86	24482.8
1096.98	24481.1
1098.1	24485
1099.22	24493.8
1100.34	24506.6
1101.45	24516.6
1102.57	24516.6
1103.69	24519.9
1104.81	24520.3
1105.93	24513.7
1107.04	24494.9
1108.16	24447.7
1109.28	24404
1110.4	24369.1
1111.51	24343.5
1112.63	24319.3
1113.75	24316.5
1114.86	24327.8
1115.98	24345.7
1117.09	24341
1118.21	24331.9
1119.32	24304.4
1120.44	24269.1
1121.55	24235.5
1122.67	24200.6
1123.78	24176.3
1124.9	24170.2
1126.01	24149
1127.13	24138.8
1128.24	24108.3
1129.35	24081.7
1130.47	24052.7
1131.58	24023.2
1132.7	24017.2
1133.81	24008.3
1134.92	23989.8
1136.03	23963.9
1137.15	23932.3
1138.26	23896.9
1139.37	23870.9
1140.48	23852.1
1141.59	23833.7
1142.71	23820.3
1143.82	23806.9
1144.93	23792.9
1146.04	23777.6
1147.15	23756.2
1148.26	23722.5
1149.37	23683.5
1150.48	23637
1151.59	23634.6
1152.7	23653.8
1153.81	23680.4
1154.92	23693.5
1156.03	23689.9
1157.14	23676.7
1158.25	23639
1159.36	23613.4
1160.47	23594.3
1161.58	23585.5
1162.68	23588.3
1163.79	23598.1
1164.9	23610.4
1166.01	23622.3
1167.12	23641.8
1168.22	23648
1169.33	23657.5
1170.44	23643.4
1171.55	23622.8
1172.65	23591.6
1173.76	23559
1174.87	23542.2
1175.97	23512.4
1177.08	23526.8
1178.18	23554.9
1179.29	23580.4
1180.4	23608.5
1181.5	23633.8
1182.61	23641.4
1183.71	23641.2
1184.82	23637.6
1185.92	23628.7
1187.02	23625.9
1188.13	23632.1
1189.23	23642
1190.34	23651.5
1191.44	23659.2
1192.54	23666.4
1193.65	23660.2
1194.75	23655.1
1195.85	23646
1196.96	23633.9
1198.06	23618.1
1199.16	23601.1
1200.26	23588.6
1201.37	23577.5
1202.47	23591.9
1203.57	23614.6
1204.67	23640.8
1205.77	23669.9
1206.87	23703.3
1207.97	23707.8
1209.08	23695.9
1210.18	23654.3
1211.28	23626.1
1212.38	23603.7
1213.48	23587.2
1214.58	23577.5
1215.68	23561.4
1216.78	23545.3
1217.88	23528.4
1218.98	23511.9
1220.07	23493
1221.17	23474.5
1222.27	23455.6
1223.37	23440.5
1224.47	23453.9
1225.57	23461.8
1226.66	23453.5
1227.76	23442.6
1228.86	23421
1229.96	23395.4
1231.06	23369.6
1232.15	23347
1233.25	23324.9
1234.35	23305.4
1235.44	23287.2
1236.54	23270.5
1237.63	23254.5
1238.73	23239.8
1239.83	23219.4
1240.92	23215
1242.02	23218.6
1243.11	23210.8
1244.21	23195.3
1245.3	23175.4
1246.4	23151.2
1247.49	23131.9
1248.59	23127.2
1249.68	23125.5
1250.78	23131
1251.87	23122.3
1252.96	23099.2
1254.06	23060.7
1255.15	23073.4
1256.24	23137.6
1257.34	23107.5
1258.43	23091.7
1259.52	23080.4
1260.62	23084.6
1261.71	23085.4
1262.8	23080
1263.89	23069.2
1264.98	23054.5
1266.08	23033.4
1267.17	23013.3
1268.26	23001
1269.35	22989.2
1270.44	23006
1271.53	23038.7
1272.62	23067.4
1273.71	23089.6
1274.8	23108.7
1275.89	23124.5
1276.98	23133.8
1278.07	23138.8
1279.16	23139.9
1280.25	23137
1281.34	23130.6
1282.43	23121.1
1283.52	23109.8
1284.61	23096.2
1285.69	23086.8
1286.78	23081.8
1287.87	23081.2
1288.96	23086.1
1290.05	23091.9
1291.13	23098.5
1292.22	23103.8
1293.31	23102
1294.4	23104.2
1295.48	23107
1296.57	23110.7
1297.66	23114.2
1298.74	23117.1
1299.83	23125.1
1300.92	23135.4
1302	23145.3
1303.09	23142.8
1304.17	23075
1305.26	23066.3
1306.34	23060.8
1307.43	23063.4
1308.51	23091.7
1309.6	23073.5
1310.68	23056.9
1311.76	23046.9
1312.85	23040.8
1313.93	23071.2
1315.02	23080.3
1316.1	23075
1317.18	23064.5
1318.27	23008.6
1319.35	22991.1
1320.43	22971.4
1321.52	22955
1322.6	22946.6
1323.68	22939.3
1324.76	22935.7
1325.85	22933.2
1326.93	22929.3
1328.01	22924.8
1329.09	22919.3
1330.17	22908.6
1331.25	22892.1
1332.33	22883.1
1333.41	22881.1
1334.49	22868.7
1335.58	22861.4
1336.65	22832.2
1337.74	22812.3
1338.82	22759
1339.89	22802
1340.97	22810.8
1342.05	22798.1
1343.13	22786
1344.21	22774.4
1345.29	22763
1346.37	22750
1347.45	22734.8
1348.53	22715
1349.6	22701.5
1350.68	22701.8
1351.76	22699.5
1352.84	22698
1353.92	22696.1
1354.99	22695.2
1356.07	22693.6
1357.15	22700.3
1358.22	22681.9
1359.3	22650.9
1360.38	22645.4
1361.45	22660.7
1362.53	22679.3
1363.61	22708.5
1364.68	22698.3
1365.76	22690.5
1366.83	22679.6
1367.91	22665.9
1368.98	22651.9
1370.06	22645.4
1371.13	22643.5
1372.21	22642.3
1373.28	22641.5
1374.35	22641.2
1375.43	22634.4
1376.5	22627.5
1377.58	22621.3
1378.65	22628.7
1379.72	22635
1380.8	22629.2
1381.87	22626
1382.94	22615.5
1384.01	22606.2
1385.09	22596.8
1386.16	22586.9
1387.23	22577.4
1388.3	22568.9
1389.38	22559.9
1390.45	22550.4
1391.52	22540
1392.59	22528.6
1393.66	22502.2
1393.92	22493.3
1395	22481.6
1396.07	22465.6
1397.15	22464.3
1398.22	22473.1
1399.3	22481.3
1400.38	22487.4
1401.45	22484.4
1402.53	22479.4
1403.6	22473
1404.68	22456
1405.75	22436.1
1406.82	22415.5
1407.9	22396
1408.97	22382.8
1410.05	22371.7
1411.12	22364
1412.19	22358.6
1413.27	22355.5
1414.34	22354.4
1415.41	22354.4
1416.49	22354.5
1417.56	22352.6
1418.63	22348.6
1419.7	22342.3
1420.78	22333.5
1421.85	22321.8
1422.92	22307.9
1423.99	22292.3
1425.06	22275.6
1426.14	22259.1
1427.21	22242.8
1428.28	22227.5
1429.35	22213.7
1430.42	22202.3
1431.49	22193.9
1432.56	22189.4
1433.63	22189.2
1434.7	22193.3
1435.77	22202.9
1436.84	22208.4
1437.91	22209.1
1438.98	22187.9
1440.05	22155
1441.12	22143.3
1442.18	22145.7
1443.25	22154.1
1444.32	22164.6
1445.39	22173.4
1446.46	22186.6
1447.53	22191.6
1448.59	22174.8
1449.66	22145.6
1450.73	22126.4
1451.8	22105.7
1452.86	22086
1453.93	22069
1455	22055.6
1456.06	22045.2
1457.13	22039.4
1458.2	22037.7
1459.26	22040.4
1460.33	22049.4
1461.39	22066.1
1462.46	22073.8
1463.52	22070.4
1464.59	22055
1465.65	22049.9
1466.72	22045.5
1467.78	22042.8
1468.85	22040.6
1469.91	22039.4
1470.98	22039.2
1472.04	22039
1473.1	22038.3
1474.17	22035.9
1475.23	22030.3
1476.3	22019.6
1477.36	22004.2
1478.42	21981.7
1479.48	21950.6
1480.55	21925.1
1481.61	21921.9
1482.67	21945
1483.73	21958.5
1484.8	21971.3
1485.86	21983.3
1486.92	21995.2
1487.98	22003.5
1489.04	22006.3
1490.1	22003.7
1491.17	21994.1
1492.23	21968.7
1493.29	21937
1494.35	21898.4
1495.41	21861.2
1496.47	21841
1497.53	21833.2
1498.59	21836
1499.65	21832.5
1500.71	21825.5
1501.77	21814.4
1502.83	21797.8
1503.88	21779
1504.94	21762
1506	21754.5
1507.06	21755.9
1508.12	21769.1
1509.18	21768.3
1510.23	21744
1511.29	21694.9
1512.35	21677.8
1513.41	21665.4
1514.47	21655.4
1515.52	21648.9
1516.58	21645.3
1517.64	21646.2
1518.69	21623.2
1519.75	21589.1
1520.81	21555.2
1521.86	21532.7
1522.92	21523.7
1523.97	21521.8
1525.03	21522.9
1526.08	21529.1
1527.14	21542
1528.2	21557.5
1529.25	21558.9
1530.31	21544.1
1531.36	21519.2
1532.42	21494
1533.47	21471.6
1534.52	21453.7
1535.58	21437.7
1536.63	21425.7
1537.69	21416.8
1538.74	21410.6
1539.79	21407.1
1540.84	21405.8
1541.9	21405.4
1542.95	21400.9
1544	21392
1545.06	21384.7
1546.11	21375.4
1547.16	21367.6
1548.21	21373.4
1549.27	21391.8
1550.32	21403.4
1551.37	21410.6
1552.42	21413.7
1553.47	21413.8
1554.52	21413.8
1555.57	21411.5
1556.62	21405.9
1557.67	21395.8
1558.72	21375.5
1559.77	21354.4
1560.82	21343.8
1561.87	21336
1562.92	21331.2
1563.97	21329.5
1565.02	21332.1
1566.07	21337.3
1567.12	21344.6
1568.17	21348.6
1569.22	21345.7
1570.27	21339.1
1571.32	21340.6
1572.36	21342.9
1573.41	21345.5
1574.46	21346
1575.51	21342.6
1576.56	21335
1577.6	21325.1
1578.65	21312.7
1579.7	21302.5
1580.74	21298.7
1581.79	21304.6
1582.84	21300.8
1583.88	21295.1
1584.93	21286.6
1585.98	21276
1587.02	21263.5
1588.07	21249.2
1589.11	21226.9
1590.16	21218
1591.2	21226.3
1592.25	21236.7
1593.29	21248.5
1594.34	21230.5
1595.38	21193.6
1596.43	21145.1
1597.47	21109.7
1598.52	21082
1599.56	21060.4
1600.6	21047
1601.65	21041.7
1602.69	21039
1603.73	21037.7
1604.78	21032.2
1605.82	21015.3
1606.86	20997
1607.91	20976.1
1608.95	20953.4
1609.99	20928.1
1611.03	20902.4
1612.08	20877.6
1613.12	20854
1614.16	20831.7
1615.2	20810.5
1616.24	20790.9
1617.28	20772.8
1618.32	20756.9
1619.36	20743.9
1620.41	20733.2
1621.45	20728.3
1622.49	20720.6
1623.53	20695.1
1624.57	20674.9
1625.61	20658.9
1626.65	20645
1627.69	20631.7
1628.73	20621.8
1629.76	20613.7
1630.8	20608.2
1631.84	20604.5
1632.88	20602.3
1633.92	20600.3
1634.96	20591
1636	20583.5
1637.03	20575.2
1638.07	20565.8
1639.11	20556.2
1640.15	20546.4
1641.19	20538
1642.22	20525.7
1643.26	20513.9
1644.3	20494.1
1645.33	20454.4
1646.37	20440.9
1647.41	20428.9
1648.44	20420
1649.48	20408.9
1650.52	20398.7
1651.55	20388.8
1652.59	20378
1653.62	20369.6
1654.66	20362.6
1655.69	20359
1656.73	20359.8
1657.76	20372.2
1658.8	20368.4
1659.83	20347.7
1660.87	20330.1
1661.9	20308.5
1662.93	20300.8
1663.97	20317.6
1665	20334.9
1666.04	20334.9
1667.07	20336.4
1668.1	20335.4
1669.14	20283.2
1670.17	20240.5
1671.2	20245.4
1672.23	20243.6
1673.27	20244.9
1674.3	20253.7
1675.33	20260.3
1676.36	20259.1
1677.39	20253.5
1678.43	20239.6
1679.46	20218.9
1680.49	20195.8
1681.52	20170
1682.55	20141.7
1683.58	20118.8
1684.61	20110.5
1685.64	20104.1
1686.67	20100.8
1687.7	20099.6
1688.73	20088.2
1689.76	20083.1
1690.79	20075.9
1691.82	20072
1692.85	20068.5
1693.88	20066.7
1694.91	20065.1
1695.94	20064.1
1696.97	20061.1
1698	20048.7
1699.02	20023.8
1700.05	20000.1
1701.08	19984.4
1702.11	19980
1703.14	19982.7
1704.16	19981.6
1705.19	19990.9
1706.22	19987.4
1707.25	19973
1708.27	19944.6
1709.3	19910.9
1710.33	19875.5
1711.35	19827
1712.38	19782.4
1713.41	19767.4
1714.43	19767.7
1715.46	19782.1
1716.48	19791.6
1717.51	19797.6
1718.53	19773.2
1719.56	19709.2
1720.58	19670.4
1721.61	19639.5
1722.63	19611.9
1723.66	19600.4
1724.68	19619.1
1725.71	19636.9
1726.73	19651.3
1727.75	19660.4
1728.78	19655.2
1729.8	19645.3
1730.83	19612.4
1731.85	19580.1
1732.87	19546.2
1733.89	19507.5
1734.92	19485.2
1735.94	19470.7
1736.96	19461.1
1737.98	19452.3
1739.01	19445
1740.03	19438.3
1741.05	19432.5
1742.07	19426.8
1743.09	19420.7
1744.12	19414.7
1745.14	19409.3
1746.16	19403.7
1747.18	19396.1
1748.2	19385.4
1749.22	19367.1
1750.24	19343.9
1751.26	19316.6
1752.28	19285.7
1753.3	19245.6
1754.32	19214.3
1755.34	19246
1756.36	19260.7
1757.38	19266.1
1758.4	19238.3
1759.42	19231.2
1760.44	19232.2
1761.45	19234.4
1762.47	19228.9
1763.49	19215.1
1764.51	19193.8
1765.53	19165.4
1766.55	19133.2
1767.56	19114
1768.58	19101.5
1769.6	19099.4
1770.61	19109.7
1771.63	19129.6
1772.65	19143.7
1773.67	19143
1774.68	19104.9
1775.7	18996.9
1776.72	19097.9
1777.73	19093.1
1778.75	19067.1
1779.76	19025.4
1780.78	19011.8
1781.79	18996.8
1782.81	18982.8
1783.83	18969.8
1784.84	18958.4
1785.85	18948
1786.87	18938.3
1787.88	18927.9
1788.9	18918.5
1789.91	18910.8
1790.93	18904.2
1791.94	18898.5
1792.95	18893.3
1793.97	18889.3
1794.98	18877.7
1796	18851.1
1797.01	18824.5
1798.02	18788.6
1799.03	18768.9
1800.05	18761.5
1801.06	18763.9
1802.07	18778.4
1803.08	18786.1
1804.1	18790
1805.11	18783.2
1806.12	18768.4
1807.13	18748.9
1808.14	18723.7
1809.15	18692.3
1810.17	18660.3
1811.18	18626.1
1812.19	18600.7
1813.2	18581.6
1814.21	18566
1815.22	18560.2
1816.23	18560
1817.24	18565.8
1818.25	18574.1
1819.26	18551.5
1820.27	18518.9
1821.28	18481.6
1822.29	18448.1
1823.3	18419.2
1824.3	18396.3
1825.31	18380.7
1826.32	18372.9
1827.33	18373.4
1828.34	18378.1
1829.35	18382.7
1830.35	18381.7
1831.36	18348.3
1832.37	18307
1833.38	18257.3
1834.38	18218.3
1835.39	18179.5
1836.4	18170.2
1837.41	18173.4
1838.41	18192.2
1839.42	18212.3
1840.43	18219.4
1841.43	18223.8
1842.44	18212.7
1843.44	18204.4
1844.45	18192.3
1845.46	18176.6
1846.46	18155.5
1847.47	18134.4
1848.47	18087.9
1849.48	18033
1850.48	17990
1851.49	17977
1852.49	18009.5
1853.49	18022.6
1854.5	17999.6
1855.5	17994
1856.51	17986.6
1857.51	17975.3
1858.51	17960.9
1859.52	17943.1
1860.52	17927.3
1861.52	17912.7
1862.53	17900.5
1863.53	17891.7
1864.53	17885.5
1865.54	17881.8
1866.54	17879.2
1867.54	17876.7
1868.54	17873
1869.54	17868.4
1870.55	17853.6
1871.55	17840.2
1872.55	17810.3
1873.55	17785
1874.55	17763
1875.55	17742.4
1876.55	17724.9
1877.55	17712.7
1878.55	17703.3
1879.55	17694.8
1880.56	17688.1
1881.55	17677.6
1882.56	17651.1
1883.55	17629.6
1884.55	17606.4
1885.55	17578
1886.55	17553.8
1887.55	17546.5
1888.55	17543.4
1889.55	17547.9
1890.55	17554.7
1891.55	17555.3
1892.55	17553.4
1893.54	17550.1
1894.54	17543.7
1895.54	17524.3
1896.54	17504.6
1897.54	17495.1
1898.53	17485.7
1899.53	17466.8
1900.53	17443.1
1901.52	17406.9
1902.52	17384
1903.52	17367
1904.51	17353.7
1905.51	17342.4
1906.51	17339.4
1907.5	17337
1908.5	17334.8
1909.49	17329.3
1910.49	17310.7
1911.49	17291.9
1912.48	17272.6
1913.48	17253.5
1914.47	17234.7
1915.46	17213
1916.46	17199.6
1917.45	17195.1
1918.45	17191.3
1919.44	17188.6
1920.44	17187.2
1921.43	17171.4
1922.43	17156.1
1923.42	17133.5
1924.41	17108.1
1925.41	17079.9
1926.4	17050.8
1927.39	17031.3
1928.38	17013.9
1929.38	16999.1
1930.37	16987.2
1931.36	16977.6
1932.35	16970.3
1933.35	16965
1934.34	16960.8
1935.33	16957
1936.32	16952.3
1937.31	16954.4
1938.3	16910.5
1939.29	16887
1940.29	16875.5
1941.28	16871.6
1942.27	16875.7
1943.26	16875.2
1944.25	16847.7
1945.24	16808.5
1946.23	16772.4
1947.22	16765.5
1948.21	16759
1949.2	16738.1
1950.19	16719.2
1951.18	16701.3
1952.17	16685.8
1953.16	16671.1
1954.14	16655.4
1955.13	16636.3
1956.12	16611.7
1957.11	16588.5
1958.1	16564.5
1959.09	16543.7
1960.07	16529.4
1961.06	16521.5
1962.05	16516.9
1963.04	16514
1964.02	16511.4
1965.01	16503.1
1966	16496.9
1966.99	16489.1
1967.97	16480.9
1968.96	16471.3
1969.95	16459.1
1970.93	16443.1
1971.92	16420.7
1972.9	16394.7
1973.89	16371.2
1974.88	16353.7
1975.86	16341.8
1976.85	16326.8
1977.83	16323.4
1978.82	16307
1979.8	16292.2
1980.79	16279
1981.77	16267.9
1982.76	16258.6
1983.74	16252.8
1984.72	16267.3
1985.71	16263.7
1986.69	16260.2
1987.67	16241.6
1988.66	16206.8
1989.64	16174.8
1990.62	16161.9
1991.61	16154.9
1992.59	16148.3
1993.57	16142
1994.56	16132
1995.54	16122.5
1996.52	16101.8
1997.5	16071.1
1998.49	16028.8
1999.47	16004.2
2000.45	15998.1
2001.43	15992.3
2002.41	15987.2
2003.39	15982.9
2004.38	15983.9
2005.36	15983.2
2006.34	15977.9
2007.32	15963.7
2008.3	15941.6
2009.28	15920.4
2010.26	15892
2011.24	15872.6
2012.22	15863.3
2013.2	15852.8
2014.18	15844.9
2015.16	15838.8
2016.14	15834.1
2017.12	15830.2
2018.1	15820.7
2019.07	15782.9
2020.05	15743.3
2021.03	15727.7
2022.01	15719.8
2022.99	15716
2023.97	15712.3
2024.95	15696.5
2025.92	15684.6
2026.9	15670.9
2027.88	15656.4
2028.86	15641
2029.83	15625.4
2030.81	15608.5
2031.79	15591
2032.76	15573.1
2033.74	15555.1
2034.72	15538.2
2035.69	15521.8
2036.67	15505
2037.65	15488.4
2038.62	15471.8
2039.6	15456.1
2040.57	15448.1
2041.55	15446.9
2042.52	15438.1
2043.5	15434
2044.47	15413.1
2045.45	15393
2046.42	15357.3
2047.4	15320.4
2048.37	15289.1
2049.35	15266.3
2050.32	15245.4
2051.29	15235.1
2052.27	15233.2
2053.24	15237
2054.21	15234.6
2055.19	15223.5
2056.16	15207.7
2057.13	15191.6
2058.11	15172.2
2059.08	15139.9
2060.05	15117.1
2061.02	15106.9
2062	15110.7
2062.97	15098.3
2063.94	15076.6
2064.91	15053.7
2065.89	15035.5
2066.86	15021.2
2067.83	15010.5
2068.8	15001.6
2069.77	14996.9
2070.74	14994.6
2071.71	14995.3
2072.68	14995.6
2073.65	14981.9
2074.62	14966.7
2075.59	14942.5
2076.56	14914.1
2077.53	14885.5
2078.5	14858.4
2079.47	14834
2080.44	14807.5
2081.41	14786.8
2082.38	14783.1
2083.35	14773.2
2084.32	14763.2
2085.29	14750.7
2086.26	14735.7
2087.23	14718.9
2088.19	14700.5
2089.16	14680.2
2090.13	14659
2091.1	14637.6
2092.07	14620.5
2093.03	14606.1
2094	14599.7
2094.97	14595.5
2095.94	14594.8
2096.9	14599.3
2097.87	14605
2098.84	14592.4
2099.8	14575.5
2100.77	14558
2101.74	14535.9
2102.7	14512.1
2103.67	14495.9
2104.63	14491.6
2105.6	14483.3
2106.56	14469.2
2107.53	14454.5
2108.49	14440.3
2109.46	14425.8
2110.42	14411.3
2111.39	14397.1
2112.35	14383.4
2113.32	14370.8
2114.28	14358.6
2115.25	14347.1
2116.21	14336.3
2117.17	14326.2
2118.14	14317.1
2119.1	14308.6
2120.07	14288.3
2121.03	14243.5
2121.99	14205.5
2122.96	14186.2
2123.92	14192.9
2124.88	14188.9
2125.84	14186
2126.81	14185.9
2127.77	14184.8
2128.73	14180.8
2129.69	14175.6
2130.65	14166.9
2131.62	14154.2
2132.58	14124
2133.54	14093
2134.5	14067.6
2135.46	14045.7
2136.42	14032
2137.38	14024.2
2138.34	14020
2139.3	14018.4
2140.26	14014.7
2141.22	14004.2
2142.18	13997.3
2143.14	13988.1
2144.1	13979
2145.06	13967.6
2146.02	13951.6
2146.98	13927.9
2147.94	13877.2
2148.9	13858.6
2149.86	13849.3
2150.82	13839.7
2151.78	13828.2
2152.74	13814.8
2153.69	13799.7
2154.65	13785.6
2155.61	13772
2156.57	13757.7
2157.53	13742.7
2158.48	13725.1
2159.44	13706.9
2160.4	13687.7
2161.36	13667.9
2162.31	13647.6
2163.27	13628.3
2164.23	13616.3
2165.18	13607.4
2166.14	13601.7
2167.1	13593.1
2168.05	13580.3
2169.01	13564.3
2169.96	13548.2
2170.92	13517.3
2171.88	13473.8
2172.83	13426.2
2173.79	13383.8
2174.74	13351.2
2175.7	13329.5
2176.65	13308.4
2177.6	13305
2178.56	13298.1
2179.51	13288.6
2180.47	13275.6
2181.42	13254.2
2182.38	13232.3
2183.33	13214.9
2184.28	13200.2
2185.24	13189.1
2186.19	13181.6
2187.14	13178
2188.1	13158.3
2189.05	13142.5
2190	13119.2
2190.96	13102.4
2191.91	13098.3
2192.86	13097.5
2193.81	13089.3
2194.76	13081.8
2195.72	13068.1
2196.67	13052.6
2197.62	13034
2198.57	13013.4
2199.52	12991.7
2200.47	12969.5
2201.43	12964.4
2202.38	12962.6
2203.33	12960.9
2204.28	12959.8
2205.23	12953.9
2206.18	12926
2207.13	12900.1
2208.08	12869.4
2209.03	12844.4
2209.98	12815.7
2210.93	12805.4
2211.88	12801
2212.83	12796
2213.78	12790.5
2214.73	12784.9
2215.67	12779.1
2216.62	12773.4
2217.57	12768.5
2218.52	12763.4
2219.47	12761.1
2220.42	12760.5
2221.37	12761
2222.31	12759.3
2223.26	12754.4
2224.21	12746.7
2225.16	12734.8
2226.1	12722.9
2227.05	12708.3
2228	12693.3
2228.94	12677.7
2229.89	12662.5
2230.84	12650.4
2231.78	12639.6
2232.73	12626.5
2233.68	12610.5
2234.62	12593
2235.57	12581.8
2236.51	12568.8
2237.46	12562.6
2238.41	12563.4
2239.35	12569.1
2240.3	12573.6
2241.24	12576.1
2242.19	12571.4
2243.13	12553.3
2244.07	12548.9
2245.02	12544.2
2245.96	12537.5
2246.91	12528.9
2247.85	12518.9
2248.8	12508.4
2249.74	12496.6
2250.68	12485
2251.63	12476.4
2252.57	12474
2253.51	12476.7
2254.46	12482.5
2255.4	12483.6
2256.34	12476.5
2257.28	12461.5
2258.23	12444.6
2259.17	12428
2260.11	12407.5
2261.05	12393.5
2262	12390.4
2262.94	12381.9
2263.88	12387.8
2264.82	12383
2265.76	12378
2266.7	12371.4
2267.64	12361.1
2268.58	12348
2269.53	12342.4
2270.47	12342
2271.41	12352.4
2272.35	12356.3
2273.29	12358.5
2274.23	12355.6
2275.17	12347.6
2276.11	12334.2
2277.05	12320.3
2277.99	12308.1
2278.93	12302.3
2279.86	12300.5
2280.8	12298.6
2281.74	12289.2
2282.68	12301.4
2283.62	12270
2284.56	12253.9
2285.5	12237.3
2286.44	12223.1
2287.37	12225.9
2288.31	12236.3
2289.25	12245
2290.19	12250.9
2291.12	12253.1
2292.06	12255.2
2293	12255.5
2293.94	12254
2294.87	12250.3
2295.81	12243.6
2296.75	12232.6
2297.68	12219.1
2298.62	12206.4
2299.55	12195
2300.49	12184.7
2301.43	12175.5
2302.36	12167.7
2303.3	12158.7
2304.23	12142
2305.17	12120.3
2306.1	12103.6
2307.04	12092.3
2307.98	12081.3
2308.91	12072.5
2309.84	12069.6
2310.78	12072.2
2311.71	12072.7
2312.65	12073.7
2313.58	12073.5
2314.52	12067.5
2315.45	12057.1
2316.38	12042.4
2317.32	12022.9
2317.72	12013.6
2318.66	11991.9
2319.6	11969.6
2320.54	11948
2321.48	11929.5
2322.41	11918.9
2323.35	11908.7
2324.29	11900.7
2325.23	11895.4
2326.16	11891.6
2327.1	11887.8
2328.04	11882.8
2328.97	11876.7
2329.91	11869.8
2330.85	11861.1
2331.78	11852
2332.72	11838.3
2333.66	11819.1
2334.59	11801.2
2335.53	11784.9
2336.46	11770.2
2337.4	11759.9
2338.33	11755.7
2339.27	11749.2
2340.2	11740.2
2341.14	11729.8
2342.07	11717.2
2343.01	11704.7
2343.94	11693.7
2344.88	11684.2
2345.81	11676.8
2346.75	11671.4
2347.68	11667.2
2348.61	11663.3
2349.55	11656.1
2350.48	11648.2
2351.41	11620.6
2352.35	11591.7
2353.28	11565.8
2354.21	11554.3
2355.15	11540
2356.08	11549.2
2357.01	11563.8
2357.94	11578.9
2358.88	11588.4
2359.81	11594.7
2360.74	11589.6
2361.67	11582.1
2362.6	11570.9
2363.54	11553.1
2364.47	11531.4
2365.4	11508.9
2366.33	11488.1
2367.26	11477.3
2368.19	11468.4
2369.12	11464.2
2370.05	11463.3
2370.98	11466.4
2371.91	11470.6
2372.84	11472.6
2373.77	11470.7
2374.7	11454.8
2375.63	11435.7
2376.56	11417.6
2377.49	11400.9
2378.42	11387.1
2379.35	11378.5
2380.28	11375.6
2381.21	11376.2
2382.14	11376.4
2383.07	11377.5
2384	11367.9
2384.92	11359.6
2385.85	11347.6
2386.78	11334.2
2387.71	11317.9
2388.64	11303.1
2389.56	11291.4
2390.49	11282
2391.42	11274.7
2392.35	11269.6
2393.27	11266.7
2394.2	11265.9
2395.13	11266.7
2396.05	11267
2396.98	11266.4
2397.91	11264.1
2398.83	11259.6
2399.76	11253.9
2400.69	11247.2
2401.61	11240.4
2402.54	11233.8
2403.46	11232.5
2404.39	11230.3
2405.31	11224.5
2406.24	11210.5
2407.17	11196.9
2408.09	11183.8
2409.01	11171.5
2409.94	11159.5
2410.86	11148
2411.79	11136.4
2412.71	11125.7
2413.64	11114
2414.56	11098.1
2415.49	11077.8
2416.41	11046.2
2417.33	11026.1
2418.26	11013.3
2419.18	11006.6
2420.1	11008.4
2421.03	11007.8
2421.95	11003.7
2422.87	10995.2
2423.79	10982
2424.72	10962.9
2425.64	10955.9
2426.56	10968.3
2427.48	10962.9
2428.41	10955.6
2429.33	10945.4
2430.25	10932.7
2431.17	10917.3
2432.09	10899.6
2433.01	10880.4
2433.93	10857.7
2434.86	10838.7
2435.78	10825
2436.7	10817
2437.62	10809.4
2438.54	10801.1
2439.46	10792.6
2440.38	10784.7
2441.3	10775.7
2442.22	10758.3
2443.14	10742.3
2444.06	10731.3
2444.98	10725.9
2445.9	10725.7
2446.82	10732.5
2447.73	10719.7
2448.65	10709.9
2449.57	10694.9
2450.49	10677
2451.41	10655.7
2452.33	10632.7
2453.25	10611.2
2454.17	10595.4
2455.08	10597.3
2456	10601
2456.92	10607.5
2457.84	10617.6
2458.75	10626.9
2459.67	10632.9
2460.59	10614.1
2461.51	10582.2
2462.42	10549.8
2463.34	10524.1
2464.26	10506.9
2465.17	10495.2
2466.09	10485.9
2467	10478.9
2467.92	10471.6
2468.84	10457.5
2469.75	10439.5
2470.67	10420.9
2471.58	10412.7
2472.5	10411.1
2473.42	10407.3
2474.33	10400
2475.25	10388.5
2476.16	10377.3
2477.08	10362.8
2477.99	10346.4
2478.9	10328.1
2479.82	10309.1
2480.73	10305.9
2481.65	10306.4
2482.56	10312.4
2483.47	10322.3
2484.39	10330.8
2485.3	10336.3
2486.22	10336.4
2487.13	10333.8
2488.04	10329.3
2488.96	10319.3
2489.87	10307.9
2490.78	10296.9
2491.69	10285.6
2492.61	10274.4
2493.52	10262.9
2494.43	10254.8
2495.34	10255.5
2496.25	10263
2497.17	10267.9
2498.08	10263.5
2498.99	10247.4
2499.9	10184.8
2500.81	10192.3
2501.72	10196.1
2502.63	10201.5
2503.55	10205.7
2504.46	10208.6
2505.37	10209.3
2506.28	10206.5
2507.19	10200.9
2508.1	10193.6
2509.01	10185.7
2509.92	10198.2
2510.83	10215.3
2511.74	10210.7
2512.65	10193.8
2513.56	10167
2514.47	10139.6
2515.37	10130.5
2516.28	10119.4
2517.19	10109.5
2518.1	10101.8
2519.01	10096.4
2519.92	10091.6
2520.83	10084.7
2521.73	10077.6
2522.64	10066.3
2523.55	10048.6
2524.46	10039.7
2525.37	10036.6
2526.27	10028.2
2527.18	10031.7
2528.09	10014.2
2529	10000.7
2529.9	9989.31
2530.81	9978.79
2531.72	9968.79
2532.62	9963.89
2533.53	9960.21
2534.44	9960.52
2535.34	9955.85
2536.25	9940.93
2537.15	9919
2538.06	9901.89
2538.96	9888.33
2539.87	9891.57
2540.78	9890.35
2541.68	9886.73
2542.59	9887.13
2543.49	9880.7
2544.4	9861
2545.3	9840.63
2546.21	9837.98
2547.11	9838.54
2548.01	9836.43
2548.92	9834.01
2549.82	9828.3
2550.73	9821.45
2551.63	9812.66
2552.53	9801.86
2553.44	9789.46
2554.34	9775.52
2555.24	9760.2
2556.15	9743.64
2557.05	9727.23
2557.95	9711.74
2558.86	9698.08
2559.76	9688.7
2560.66	9687.89
2561.56	9687.26
2562.46	9658.68
2563.37	9644.4
2564.27	9643.66
2565.17	9647.52
2566.07	9652.65
2566.97	9659.92
2567.88	9662.84
2568.78	9655
2569.68	9639.33
2570.58	9610.29
2571.48	9584.1
2572.38	9548.6
2573.28	9528.05
2574.18	9515.56
2575.08	9505.21
2575.98	9518.76
2576.88	9529.55
2577.78	9534.08
2578.68	9529.73
2579.58	9513.91
2580.48	9483.84
2581.38	9469.56
2582.28	9457.44
2583.18	9468.18
2584.08	9461.23
2584.98	9453.78
2585.88	9439.08
2586.77	9421.64
2587.67	9409.24
2588.57	9387.87
2589.47	9372.74
2590.37	9363.65
2591.27	9355.86
2592.16	9347.67
2593.06	9338.76
2593.96	9328.77
2594.86	9318.43
2595.75	9307.86
2596.65	9296.92
2597.55	9285.24
2598.45	9274.71
2599.34	9271.74
2600.24	9281.96
2601.13	9291.58
2602.03	9283.66
2602.93	9275.08
2603.82	9250.58
2604.72	9229.31
2605.62	9209.3
2606.51	9191.42
2607.41	9176.98
2608.3	9163.32
2609.2	9167.39
2610.09	9175.92
2610.99	9183.55
2611.88	9191.33
2612.78	9185.6
2613.67	9167.84
2614.57	9134.68
2615.46	9119.23
2616.36	9103.11
2617.25	9095.56
2618.14	9100.61
2619.04	9107.99
2619.93	9113.87
2620.83	9110.72
2621.72	9106.48
2622.61	9098.63
2623.5	9089.93
2624.4	9077.98
2625.29	9063.92
2626.18	9047.17
2627.08	9028.25
2627.97	9006.99
2628.86	8984.36
2629.75	8969.08
2630.65	8967.97
2631.54	8975.39
2632.43	8978.54
2633.32	8984.18
2634.21	8981.88
2635.11	8970.57
2636	8951
2636.89	8929.72
2637.78	8905.42
2638.67	8882.17
2639.56	8863.98
2640.45	8845.33
2641.34	8828.28
2642.23	8811.92
2643.12	8797.35
2644.01	8784.42
2644.9	8775.22
2645.79	8774.11
2646.68	8768.29
2647.57	8762.5
2648.46	8759.38
2649.35	8753.19
2650.24	8743.07
2651.13	8719.42
2652.02	8691
2652.91	8672.59
2653.8	8660.71
2654.69	8683.65
2655.58	8689.44
2656.46	8678.3
2657.35	8673.77
2658.24	8667.82
2659.13	8657.98
2660.02	8644.61
2660.9	8630.48
2661.79	8607.11
2662.68	8568.37
2663.57	8565.38
2664.45	8572.62
2665.34	8599.03
2666.23	8605.71
2667.11	8609.44
2668	8600.05
2668.89	8572.2
2669.77	8550.5
2670.66	8533.42
2671.55	8518.2
2672.43	8514.85
2673.32	8525.98
2674.21	8540.44
2675.09	8547.16
2675.98	8551.5
2676.86	8546.88
2677.75	8526.03
2678.63	8493.72
2679.52	8470.22
2680.4	8448.34
2681.29	8446.31
2682.17	8429.5
2683.06	8402.31
2683.94	8379.87
2684.82	8361.39
2685.71	8345.9
2686.59	8335.27
2687.48	8328.31
2688.36	8325.28
2689.24	8325.71
2690.13	8329.83
2691.01	8336.31
2691.89	8339.25
2692.78	8340
2693.66	8329.15
2694.54	8311.54
2695.43	8295.51
2696.31	8277.67
2697.19	8258.66
2698.07	8233.16
2698.96	8217.72
2699.84	8214.14
2700.72	8215.1
2701.6	8216.67
2702.48	8222.29
2703.36	8227.43
2704.25	8226.4
2705.13	8215.21
2706.01	8196.91
2706.89	8174.03
2707.77	8146.51
2708.65	8139.44
2709.53	8160.37
2710.41	8155.8
2711.29	8149.37
2712.17	8143.22
2713.05	8132.12
2713.93	8124.9
2714.81	8120.52
2715.69	8110.79
2716.57	8097.55
2717.45	8081.25
2718.33	8061.69
2719.21	8034.01
2720.09	8016.08
2720.97	8011.07
2721.85	8018.24
2722.73	8031.89
2723.61	8036.98
2724.48	8037.97
2725.36	8034.76
2726.24	8028.04
2727.12	8019.06
2728	8006.69
2728.88	7987.72
2729.75	7967.36
2730.63	7980.66
2731.51	7990.27
2732.39	7993.12
2733.26	7992.11
2734.14	7987.12
2735.02	7977.4
2735.89	7957.43
2736.77	7943.22
2737.65	7935.12
2738.52	7930.98
2739.4	7927.23
2740.28	7921.65
2741.15	7913.08
2742.03	7900.23
2742.9	7884.23
2743.78	7872.77
2744.65	7861.33
2745.53	7856.18
2746.41	7851.05
2747.28	7847.34
2748.16	7844.35
2749.03	7843.49
2749.91	7839.13
2750.78	7830.21
2751.66	7820.65
2752.53	7813.08
2753.4	7804.49
2754.28	7795.53
2755.15	7786.96
2756.02	7778.44
2756.9	7770.31
2757.77	7762.78
2758.65	7756.71
2759.52	7753.68
2760.39	7753.64
2761.27	7755.4
2762.14	7750.79
2763.01	7732.25
2763.88	7713.96
2764.76	7692.46
2765.63	7670.34
2766.5	7654.24
2767.37	7643.21
2768.25	7638.53
2769.12	7641.88
2769.99	7648.16
2770.86	7650.02
2771.73	7650.96
2772.61	7650.33
2773.48	7647.9
2774.35	7643.5
2775.22	7637.26
2776.09	7629.05
2776.96	7618.95
2777.83	7606.75
2778.7	7591.03
2779.57	7573.05
2780.44	7554.32
2781.31	7535.17
2782.18	7522.8
2783.05	7519.31
2783.92	7521.42
2784.79	7519.36
2785.66	7517.62
2786.53	7512.39
2787.4	7507.33
2788.27	7501.11
2789.14	7494.31
2790.01	7487.07
2790.88	7482.02
2791.75	7483.79
2792.62	7486.6
2793.48	7494.73
2794.35	7504.97
2795.22	7450.32
2796.09	7443.98
2796.96	7436.27
2797.82	7427.83
2798.69	7419.73
2799.56	7412.2
2800.43	7405.37
2801.29	7398.98
2802.16	7394.93
2803.03	7391.38
2803.9	7388.22
2804.76	7384.48
2805.63	7379.25
2806.5	7371.3
2807.36	7361.35
2808.23	7349.68
2809.09	7336.66
2809.96	7321.63
2810.83	7307.27
2811.69	7298.58
2812.56	7290.81
2813.42	7292.83
2814.29	7291.03
2815.15	7288.02
2816.02	7285.93
2816.88	7282.62
2817.75	7276.99
2818.61	7269.08
2819.48	7256.02
2820.34	7235.36
2821.21	7227.36
2822.07	7218.68
2822.94	7215.35
2823.8	7213.46
2824.66	7212.54
2825.53	7212.08
2826.39	7212.3
2827.26	7210.47
2828.12	7207.26
2828.98	7202.13
2829.85	7195.83
2830.71	7186.91
2831.57	7173.74
2832.43	7158.17
2833.3	7143.97
2834.16	7130.11
2835.02	7119.46
2835.88	7115.5
2836.75	7113.43
2837.61	7111.91
2838.47	7110.47
2839.33	7107
2840.19	7100.08
2841.06	7093.18
2841.92	7085.17
2842.78	7076
2843.64	7065.91
2844.5	7059.6
2845.36	7057.1
2846.22	7060.03
2847.08	7062.83
2847.94	7065.96
2848.81	7058.59
2849.67	7053.84
2850.53	7043.21
2851.39	7019.7
2852.25	7011.41
2853.11	7015.73
2853.97	7022.81
2854.82	7024
2855.68	7018.85
2856.54	7007.4
2857.4	6990.56
2858.26	6975.37
2859.12	6962.55
2859.98	6947.69
2860.84	6937.23
2861.7	6930.81
2862.56	6927.57
2863.41	6925.01
2864.27	6924.02
2865.13	6923.6
2865.99	6924.57
2866.85	6924.17
2867.7	6921.44
2868.56	6915.12
2869.42	6905.02
2870.28	6892.15
2871.13	6878.22
2871.99	6864.1
2872.85	6853.48
2873.7	6859.71
2874.56	6877.04
2875.42	6876.36
2876.27	6874.81
2877.13	6797.76
2877.99	6789.63
2878.84	6786.95
2879.7	6807.01
2880.56	6802.67
2881.41	6799.52
2882.27	6795.93
2883.12	6793.25
2883.98	6763.49
2884.83	6754.92
2885.69	6748.01
2886.54	6750.49
2887.4	6748.48
2888.25	6740.14
2889.11	6726.62
2889.96	6718.92
2890.82	6713.83
2891.67	6711.76
2892.52	6711.52
2893.38	6714.62
2894.23	6708.73
2895.09	6703.53
2895.94	6698.3
2896.79	6685.78
2897.65	6677.06
2898.5	6671.73
2899.35	6668.25
2900.21	6665.39
2901.06	6662.29
2901.91	6660.54
2902.76	6651.3
2903.62	6639.6
2904.47	6624.96
2905.32	6610.39
2906.17	6599.03
2907.03	6589.41
2907.88	6581.44
2908.73	6575.51
2909.58	6570.88
2910.43	6569.55
2911.28	6569.04
2912.14	6569.09
2912.99	6567.41
2913.84	6561.81
2914.69	6555.77
2915.54	6544.47
2916.39	6531.14
2917.24	6517.54
2918.09	6503.4
2918.94	6498.78
2919.79	6491.92
2920.64	6494.34
2921.49	6494.16
2922.34	6490.05
2923.19	6481.35
2924.04	6468.27
2924.89	6456.68
2925.74	6447.22
2926.59	6440.62
2927.44	6436.17
2928.29	6432.41
2929.14	6426.77
2929.98	6418.38
2930.83	6405.86
2931.68	6388.26
2932.53	6366.49
2933.38	6349.26
2934.23	6337.9
2935.07	6330.07
2935.92	6323.83
2936.77	6318.04
2937.62	6313.16
2938.47	6310.87
2939.31	6310.64
2940.16	6311.92
2941.01	6315.37
2941.85	6318.58
2942.7	6310.65
2943.55	6301.95
2944.39	6290.94
2945.24	6278.23
2946.09	6270.8
2946.93	6263.69
2947.78	6256.85
2948.63	6250.42
2949.47	6244.7
2950.32	6239.45
2951.16	6232.89
2952.01	6232.55
2952.85	6231.72
2953.7	6233.5
2954.55	6235.24
2955.39	6237.89
2956.24	6233.12
2957.08	6211.7
2957.92	6195.84
2958.77	6170.12
2959.61	6151.95
2960.46	6152.61
2961.3	6158.01
2962.15	6168.69
2962.99	6173.29
2963.83	6175.32
2964.68	6161.91
2965.52	6138.8
2966.37	6124.96
2967.21	6116.83
2968.05	6114.36
2968.9	6115.77
2969.74	6119.13
2970.58	6126.11
2971.42	6125
2972.27	6120.19
2973.11	6111.43
2973.95	6102.13
2974.79	6097.59
2975.64	6093.66
2976.48	6089.68
2977.32	6085.62
2978.16	6081.08
2979	6076.49
2979.85	6070.65
2980.69	6061.85
2981.53	6052.19
2982.37	6042.91
2983.21	6034.31
2984.05	6026.92
2984.89	6021.69
2985.73	6018.17
2986.57	6016.01
2987.41	6015.32
2988.25	6015.89
2989.1	6017.95
2989.94	6018.8
2990.77	6005.93
2991.62	5992.48
2992.45	5975.67
2993.29	5957.56
2994.13	5949.44
2994.97	5941.01
2995.81	5940
2996.65	5937.83
2997.49	5975.15
2998.33	5933.24
2999.17	5929.23
