200.833	17311.2
202.102	17373.7
203.371	17386.7
204.639	17389.2
205.907	17393.3
207.175	17395.1
208.442	17400
209.71	17409.7
210.977	17426.8
212.244	17447.1
213.511	17471
214.777	17497.2
216.042	17526.9
217.309	17533
218.575	17546.7
219.84	17567.5
221.106	17591.6
222.371	17614.5
223.635	17638.9
224.9	17665.8
226.165	17696.1
227.429	17735.4
228.694	17777.4
229.956	17817.5
231.22	17857.1
232.484	17895.8
233.747	17932.9
235.011	17968.2
236.272	18002.2
237.535	18033.5
238.798	18062.2
240.06	18088.3
241.321	18108.9
242.583	18122.3
243.845	18124
245.105	18104.2
246.367	18127.4
247.628	18205.7
248.888	18272
250.149	18309.8
251.409	18308.1
252.67	18309.5
253.928	18292.6
255.189	18243.4
256.447	18203.1
257.707	18231.8
258.966	18256.1
260.224	18286.9
261.483	18322.4
262.742	18362.7
263.999	18371.8
265.257	18387.2
266.514	18402.2
267.772	18419.1
269.028	18435.9
270.286	18452.4
271.543	18480
272.799	18509
274.056	18527
275.311	18543.9
276.568	18544.3
277.823	18558
279.079	18573.6
280.333	18613.1
281.589	18643.2
282.843	18668.5
284.099	18688.9
285.352	18707.8
286.607	18719.8
287.86	18748.6
289.114	18783
290.368	18819.6
291.621	18849.3
292.875	18872.8
294.127	18890.9
295.38	18901.7
296.632	18905.5
297.884	18904.4
299.137	18902.9
300.388	18903.4
301.641	18915.9
302.891	18925.5
304.142	18938.4
305.394	18952.3
306.644	18970
307.894	18983.8
309.146	18991
310.395	18992
311.645	18988.5
312.895	18993.6
314.144	19002.9
315.393	19014.8
316.642	19027.4
317.892	19042.3
319.14	19057.7
320.388	19072.6
321.637	19085.6
322.885	19094.7
324.132	19103.8
325.38	19112.4
326.628	19126.3
327.875	19150.9
329.122	19187.1
330.368	19237.5
331.614	19278
332.862	19310.2
334.108	19334.7
335.353	19358.8
336.599	19360.9
337.844	19361.3
339.089	19353.9
340.335	19344.5
341.58	19340.3
342.824	19344.9
344.068	19367.4
345.312	19386.9
346.556	19404.5
347.8	19410.5
349.043	19421.7
350.286	19434.1
351.53	19447
352.774	19460.9
354.016	19477.9
355.259	19500.4
356.501	19525.5
357.743	19546
358.985	19535.6
360.227	19513.2
361.468	19438.7
362.709	19446.5
363.95	19449.2
365.191	19456
366.432	19468.2
367.672	19486.9
368.912	19514
370.152	19529.4
371.392	19528.2
372.632	19533.8
373.871	19525.9
375.11	19530
376.348	19543.6
377.587	19568.2
378.825	19596.7
380.064	19619.9
381.302	19640.6
382.54	19655.5
383.778	19661.9
385.016	19656.1
386.253	19653.9
387.489	19658
388.726	19671.6
389.963	19693.7
391.199	19711.9
392.436	19727.9
393.672	19741.8
394.907	19753.7
396.142	19758.4
397.378	19764.1
398.614	19772.2
399.849	19782
401.082	19798.1
402.317	19814.7
403.552	19834
404.786	19854.9
406.019	19877.9
407.253	19900.5
408.487	19912.4
409.721	19920.2
410.953	19876.7
412.186	19824.9
413.419	19819.5
414.651	19804.7
415.883	19883.5
417.116	19909
418.347	19906.7
419.579	19906.6
420.811	19909.1
422.041	19914.4
423.272	19922.3
424.504	19933
425.733	19944.8
426.964	19943.9
428.194	19945.7
429.424	19948.6
430.654	19953.8
431.883	19961.1
433.113	19970.9
434.341	19983.7
435.571	19999.1
436.799	20013.7
438.028	20015.2
439.257	20011.7
440.484	20016.6
441.713	20033.6
442.94	20063.9
444.168	20087.5
445.394	20114
446.622	20134
447.848	20156
449.076	20167.2
450.301	20169.7
451.528	20169.9
452.754	20162.5
453.979	20157.6
455.205	20153.8
456.43	20149.6
457.656	20146
458.88	20143.5
460.106	20142.1
461.33	20142.6
462.554	20143.9
463.779	20146.2
465.002	20150.3
466.225	20164.3
467.45	20183
468.672	20205.5
469.895	20217.6
471.119	20217.6
472.341	20201.8
473.563	20187.7
474.786	20168.5
476.008	20150.7
477.229	20134.8
478.452	20120.7
479.673	20105.4
480.894	20095.4
482.115	20094.2
483.337	20098.2
484.557	20109.4
485.777	20116.8
486.997	20116.4
488.218	20113.8
489.438	20110.3
490.657	20103.2
491.876	20095.1
493.096	20083
494.315	20071.7
495.533	20060
496.752	20064
497.97	20081.5
499.188	20099.2
500.407	20118
501.625	20137.7
502.842	20158.1
504.059	20144.8
505.276	20112.8
506.493	20086.1
507.71	20068
508.926	20094.2
510.142	20102.8
511.358	20116.3
512.575	20128.4
513.791	20145.9
515.006	20151.4
516.222	20136.6
517.437	20144.8
518.651	20165
519.866	20207.5
521.081	20243
522.295	20272.2
523.509	20294.2
524.723	20285.2
525.937	20278.1
527.15	20271.9
528.363	20268.1
529.576	20271.8
530.789	20274.4
532.002	20294.2
533.215	20310.2
534.426	20329.8
535.638	20333.2
536.85	20329.6
538.061	20318.8
539.273	20307.6
540.484	20314.7
541.695	20319.7
542.906	20326.8
544.117	20339
545.327	20359.5
546.537	20356.5
547.747	20340.4
548.957	20330
550.167	20315.8
551.377	20319.9
552.585	20338.6
553.794	20352.6
555.003	20359.7
556.212	20364.5
557.421	20368.5
558.628	20367.6
559.836	20364.4
561.044	20357.7
562.252	20348.7
563.458	20337.6
564.666	20327.3
565.873	20326.8
567.08	20325.3
568.286	20329
569.493	20337.4
570.699	20345.1
571.904	20350.2
573.111	20339.4
574.317	20315.8
575.521	20289.2
576.727	20280.9
577.932	20278.4
579.136	20280.7
580.341	20294.9
581.544	20320.2
582.749	20329.7
583.954	20335.9
585.156	20332.3
586.361	20334.9
587.563	20343.2
588.767	20351
589.97	20356.2
591.172	20360.1
592.375	20360.2
593.577	20354.6
594.78	20342.6
595.981	20331.4
597.183	20327.2
598.384	20330.3
599.586	20340.7
600.786	20348.1
601.988	20353.9
603.188	20358.3
604.389	20361.6
605.589	20364.3
606.79	20365.8
607.989	20365.9
609.188	20364.4
610.389	20360.9
611.587	20354.8
612.787	20346.9
613.986	20335.9
615.184	20319.5
616.383	20297.1
617.581	20271.1
618.78	20228
619.977	20182.7
621.174	20156.7
622.373	20142
623.57	20139.7
624.766	20149.7
625.964	20153.6
627.16	20139.4
628.356	20116.1
629.554	20099.3
630.749	20083.6
631.945	20068
633.14	20056.6
634.337	20046.7
635.532	20039.5
636.726	20033.9
637.921	20029.7
639.117	20025.2
640.311	20018
641.505	20012.7
642.699	20009.1
643.892	20007.3
645.087	20007.6
646.28	20011.6
647.473	20017.8
648.666	20026.5
649.859	20037.8
651.051	20051.6
652.245	20068.4
653.437	20083.4
654.629	20092.7
655.821	20091
657.012	20083.7
658.204	20075.3
659.395	20070.6
660.586	20070
661.777	20073
662.967	20079.4
664.158	20087.3
665.349	20096.5
666.539	20104.6
667.729	20108.5
668.919	20113.7
670.109	20120.5
671.298	20127.2
672.487	20134.4
673.676	20141.1
674.865	20148.3
676.053	20157.3
677.242	20168.9
678.43	20180.4
679.616	20170.8
680.804	20134.5
681.992	20131.2
683.179	20120.2
684.366	20111.1
685.554	20097.8
686.74	20086.4
687.927	20076.8
689.114	20069.7
690.3	20065.5
691.486	20064.3
692.671	20069.5
693.856	20082.8
695.042	20049.1
696.227	20019.7
697.413	19995.3
698.598	19980
699.781	19989.1
700.966	19984
702.15	19990.8
703.334	19995.9
704.518	20003.4
705.701	20009
706.885	19993.2
708.068	19980
709.252	19963.6
710.433	19953
711.616	19942.8
712.799	19932.7
713.98	19922.8
715.163	19913.1
716.345	19903.7
717.527	19894.7
718.707	19885.9
719.889	19877.7
721.071	19871.6
722.25	19868.8
723.432	19889.4
724.611	19907.9
725.792	19922.8
726.972	19944.2
728.151	19950
729.332	19932.9
730.512	19911.8
731.69	19895
732.87	19888.1
734.048	19883.5
735.227	19876
736.405	19879.5
737.584	19915.8
738.761	19957.7
739.94	19983.4
741.117	20018.5
742.295	20041.7
743.471	20065.2
744.649	20066.8
745.825	20040.7
747.003	20016.5
748.179	20008.3
749.356	20009.6
750.531	20017
751.708	20017.9
752.883	20020.6
754.059	20016.3
755.234	20008.4
756.409	19999.9
757.585	19990.9
758.759	19981.4
759.934	19970.9
761.108	19960
762.282	19954.4
763.456	19955.9
764.63	19963.5
765.803	19964.5
766.977	19961.6
768.15	19957
769.323	19949.3
770.496	19935
771.668	19903.8
772.841	19894.6
774.014	19885.7
775.185	19875.8
776.357	19864.8
777.528	19851.8
778.701	19836.9
779.872	19820.9
781.042	19803.3
782.213	19784.4
783.383	19764.3
784.555	19744.2
785.725	19729.8
786.895	19718.6
788.064	19707.1
789.234	19697.7
790.404	19690.5
791.573	19685.6
792.742	19682.9
793.911	19682.5
795.08	19694.8
796.248	19683.1
797.416	19680.6
798.584	19665.6
799.753	19647.7
800.921	19633.1
802.088	19638.2
803.256	19645.9
804.423	19661.4
805.59	19673.1
806.756	19661.2
807.923	19642.8
809.089	19636.9
810.256	19625.1
811.422	19615.2
812.587	19626.8
813.753	19652.5
814.918	19682.7
816.084	19706.7
817.249	19723.6
818.414	19734.4
819.578	19740.9
820.743	19744.5
821.907	19741
823.072	19732.9
824.236	19720.8
825.399	19709.8
826.562	19701.5
827.725	19698
828.889	19704.7
830.052	19718
831.215	19731.8
832.377	19729.6
833.54	19722.4
834.701	19717
835.863	19713.8
837.025	19709.9
838.187	19707.6
839.349	19710.3
840.51	19713.8
841.67	19717
842.831	19718.7
843.992	19717.7
845.153	19714.1
846.312	19709.1
847.473	19702
848.633	19692.7
849.793	19681.1
850.951	19666.4
852.111	19648.4
853.27	19626.1
854.428	19598.2
855.588	19573.1
856.747	19553.9
857.904	19560.2
859.063	19575.2
860.221	19569.2
861.378	19554.9
862.536	19537.6
863.694	19513.4
864.85	19480.8
866.008	19441.5
867.164	19429.8
868.321	19425.3
869.478	19423.7
870.633	19420.2
871.79	19414.4
872.945	19406.7
874.101	19395
875.256	19379.6
876.412	19360.6
877.566	19338.6
878.722	19307.8
879.876	19270.7
881.031	19229.3
882.185	19189.2
883.34	19177.2
884.493	19182.6
885.647	19208.5
886.8	19228.3
887.954	19231.3
889.107	19214.7
890.261	19199
891.413	19182.7
892.565	19178.5
893.718	19176.5
894.87	19204.3
896.023	19205.6
897.174	19196.6
898.326	19198.5
899.478	19191.5
900.629	19183.7
901.779	19194.8
902.931	19222.1
904.081	19249.1
905.231	19264.9
906.383	19269.4
907.532	19262.5
908.682	19243.7
909.831	19238.1
910.982	19233.8
912.131	19235.8
913.28	19236.6
914.429	19249.7
915.578	19257.6
916.727	19262.3
917.875	19268.1
919.023	19266.7
920.171	19258.8
921.32	19270.6
922.467	19283.9
923.614	19291.5
924.761	19294.9
925.908	19297.1
927.055	19298.6
928.203	19298.4
929.349	19294.2
930.496	19283.2
931.642	19259.4
932.787	19240.2
933.933	19220.8
935.079	19214.8
936.224	19212.8
937.369	19209.8
938.514	19224.2
939.659	19242.4
940.804	19240.2
941.948	19233.3
943.092	19208.3
944.236	19181
945.38	19156
946.524	19144.5
947.667	19139.8
948.811	19131.6
949.954	19145.3
951.097	19145.7
952.24	19140.7
953.383	19131.3
954.525	19113.8
955.667	19098.2
956.81	19077.9
957.952	19057.6
959.093	19036.9
960.235	19016.1
961.376	18995.1
962.516	18977.5
963.658	18958.1
964.798	18944.7
965.939	18938.1
967.08	18934.1
968.22	18931.2
969.359	18927
970.499	18922.2
971.639	18917.9
972.779	18913.5
973.918	18908.9
975.056	18904
976.195	18898.3
977.334	18884.3
978.473	18868.4
979.61	18876
980.749	18897.5
981.887	18930.1
983.024	18955.9
984.162	18963
985.3	18957.3
986.437	18949.1
987.573	18940.6
988.711	18931.7
989.848	18927.1
990.983	18926.7
992.12	18930.9
993.255	18939.9
994.392	18953.8
995.528	18964.3
996.662	18971.2
997.798	18967.7
998.933	18959
1000.07	18949.6
1001.2	18941.7
1002.34	18947.7
1003.47	18951
1004.61	18953.3
1005.74	18944.6
1006.87	18930.2
1008.01	18917.7
1009.14	18917.1
1010.27	18921.7
1011.41	18925.3
1012.54	18932.8
1013.67	18935.8
1014.81	18929.5
1015.94	18924.3
1017.07	18916.5
1018.2	18904.2
1019.33	18896.3
1020.47	18886.1
1021.6	18872.5
1022.73	18855.8
1023.86	18836.2
1024.99	18812.4
1026.12	18789.6
1027.25	18774.3
1028.38	18769.3
1029.51	18772.7
1030.64	18778.2
1031.77	18782.3
1032.9	18777.2
1034.03	18768.9
1035.16	18754.1
1036.29	18736.8
1037.42	18714.9
1038.55	18695.7
1039.67	18677.2
1040.8	18658.6
1041.93	18640.4
1043.06	18622.9
1044.19	18606.3
1045.31	18592.2
1046.44	18589.8
1047.57	18600.8
1048.69	18606.6
1049.82	18595.5
1050.95	18575.3
1052.08	18548.9
1053.2	18510.1
1054.33	18474.1
1055.45	18453.9
1056.58	18444.5
1057.7	18441.2
1058.83	18442.7
1059.95	18441.6
1061.08	18434.8
1062.2	18428.1
1063.33	18421
1064.45	18413.4
1065.58	18405
1066.7	18396
1067.83	18392.4
1068.95	18393.9
1070.07	18432.9
1071.2	18453.5
1072.32	18465.5
1073.44	18470.9
1074.56	18474.5
1075.69	18455.8
1076.81	18436.2
1077.93	18437.5
1079.05	18443.7
1080.17	18461
1081.3	18473
1082.42	18478.2
1083.54	18477.2
1084.66	18475.3
1085.78	18465.7
1086.9	18453.8
1088.02	18448.2
1089.14	18444.2
1090.26	18441.2
1091.38	18439.5
1092.5	18440.3
1093.62	18443
1094.74	18446.8
1095.86	18450.2
1096.98	18453.9
1098.1	18457.4
1099.22	18461.8
1100.34	18466.5
1101.45	18471.3
1102.57	18473
1103.69	18465.8
1104.81	18435.8
1105.93	18421.5
1107.04	18407.1
1108.16	18393.5
1109.28	18378.8
1110.4	18362.8
1111.51	18344.3
1112.63	18323.8
1113.75	18300.3
1114.86	18282.7
1115.98	18267.1
1117.09	18255.9
1118.21	18246.9
1119.32	18239.7
1120.44	18233.3
1121.55	18226.3
1122.67	18217.6
1123.78	18206.8
1124.9	18193.6
1126.01	18176.9
1127.13	18156.5
1128.24	18131.8
1129.35	18103.5
1130.47	18071.1
1131.58	18036
1132.7	18007.8
1133.81	17986
1134.92	17971.9
1136.03	17956.2
1137.15	17939
1138.26	17922.1
1139.37	17906.8
1140.48	17892.9
1141.59	17881.1
1142.71	17870.7
1143.82	17871.1
1144.93	17868.6
1146.04	17865.2
1147.15	17858.9
1148.26	17832.5
1149.37	17798.2
1150.48	17773.9
1151.59	17757.8
1152.7	17750.7
1153.81	17753
1154.92	17764.4
1156.03	17775.9
1157.14	17768.9
1158.25	17752.8
1159.36	17750.4
1160.47	17755
1161.58	17761.4
1162.68	17765.5
1163.79	17767.8
1164.9	17768.7
1166.01	17760.5
1167.12	17742.8
1168.22	17723.9
1169.33	17707.2
1170.44	17695.9
1171.55	17693.5
1172.65	17693.1
1173.76	17696.1
1174.87	17703
1175.97	17714.4
1177.08	17729.4
1178.18	17741.1
1179.29	17749.8
1180.4	17754.7
1181.5	17748.4
1182.61	17743.2
1183.71	17733
1184.82	17726.6
1185.92	17724.1
1187.02	17729.8
1188.13	17744.9
1189.23	17757.2
1190.34	17766.1
1191.44	17771.1
1192.54	17774
1193.65	17773.3
1194.75	17768.7
1195.85	17759.1
1196.96	17744.8
1198.06	17731.4
1199.16	17718.6
1200.26	17717.4
1201.37	17715.4
1202.47	17732.1
1203.57	17753.7
1204.67	17749.7
1205.77	17737.6
1206.87	17724.3
1207.97	17714.9
1209.08	17705.6
1210.18	17696.8
1211.28	17690.2
1212.38	17684
1213.48	17680
1214.58	17676.9
1215.68	17674
1216.78	17669.1
1217.88	17652.9
1218.98	17632.1
1220.07	17624.1
1221.17	17627.9
1222.27	17642.4
1223.37	17667.2
1224.47	17674.7
1225.57	17666.8
1226.66	17650.8
1227.76	17630.4
1228.86	17606.5
1229.96	17579.8
1231.06	17550.4
1232.15	17518.7
1233.25	17483.5
1234.35	17463.6
1235.44	17438.3
1236.54	17443.9
1237.63	17458.1
1238.73	17427.1
1239.83	17389.3
1240.92	17353
1242.02	17329
1243.11	17314.9
1244.21	17309.3
1245.3	17310.5
1246.4	17321.2
1247.49	17340.6
1248.59	17369.9
1249.68	17406.9
1250.78	17435.2
1251.87	17429
1252.96	17362.9
1254.06	17294.6
1255.15	17290.3
1256.24	17292.4
1257.34	17285.7
1258.43	17283.5
1259.52	17288
1260.62	17293.1
1261.71	17296.5
1262.8	17297.6
1263.89	17297.3
1264.98	17295
1266.08	17287.3
1267.17	17278.9
1268.26	17268.2
1269.35	17256.2
1270.44	17244.5
1271.53	17239.6
1272.62	17245.7
1273.71	17262.1
1274.8	17284.9
1275.89	17302.7
1276.98	17317.9
1278.07	17331.9
1279.16	17344
1280.25	17354.3
1281.34	17361.5
1282.43	17365.4
1283.52	17363.4
1284.61	17336.1
1285.69	17327.7
1286.78	17328.7
1287.87	17327.1
1288.96	17312
1290.05	17297.3
1291.13	17285.6
1292.22	17273.1
1293.31	17261
1294.4	17247.9
1295.48	17245.7
1296.57	17261.4
1297.66	17274.3
1298.74	17285.4
1299.83	17294.5
1300.92	17299.4
1302	17298.4
1303.09	17288.1
1304.17	17277.9
1305.26	17271.6
1306.34	17268.7
1307.43	17266.9
1308.51	17266
1309.6	17263.5
1310.68	17257.9
1311.76	17250.7
1312.85	17241.3
1313.93	17233.4
1315.02	17228.6
1316.1	17231.4
1317.18	17229.7
1318.27	17242.4
1319.35	17244.5
1320.43	17234.2
1321.52	17216.9
1322.6	17201.7
1323.68	17188.4
1324.76	17176.5
1325.85	17162.4
1326.93	17155.7
1328.01	17141.6
1329.09	17125.2
1330.17	17114.2
1331.25	17104.9
1332.33	17099.8
1333.41	17099.1
1334.49	17103.9
1335.58	17112.7
1336.65	17125.7
1337.74	17128.3
1338.82	17123
1339.89	17113.2
1340.97	17104.1
1342.05	17095.8
1343.13	17082.2
1344.21	17063.4
1345.29	17048.7
1346.37	17038.3
1347.45	17028.1
1348.53	17023.1
1349.6	17019.4
1350.68	17012.5
1351.76	17002.6
1352.84	16997.6
1353.92	16987.9
1354.99	16980.9
1356.07	16973.5
1357.15	16966.1
1358.22	16961.7
1359.3	16960.7
1360.38	16968.3
1361.45	16979.8
1362.53	16983.5
1363.61	16985
1364.68	16988.5
1365.76	16985.9
1366.83	16977.3
1367.91	16969.5
1368.98	16963.7
1370.06	16959.1
1371.13	16957.2
1372.21	16959.4
1373.28	16961.2
1374.35	16956.9
1375.43	16956
1376.5	16957.8
1377.58	16959.4
1378.65	16961.2
1379.72	16961.7
1380.8	16959.2
1381.87	16953.3
1382.94	16945.7
1384.01	16934.7
1385.09	16922.4
1386.16	16908.9
1387.23	16894.6
1388.3	16882
1389.38	16873.8
1390.45	16871
1391.52	16871.1
1392.59	16875.3
1393.66	16881.8
1393.92	16882.5
1395	16892.2
1396.07	16892.3
1397.15	16885.5
1398.22	16865.1
1399.3	16844.6
1400.38	16828.5
1401.45	16813.6
1402.53	16796.5
1403.6	16776.9
1404.68	16766.6
1405.75	16762.9
1406.82	16763
1407.9	16767
1408.97	16772.5
1410.05	16782.6
1411.12	16787.8
1412.19	16788.9
1413.27	16786.6
1414.34	16776.3
1415.41	16755.2
1416.49	16746.7
1417.56	16748.8
1418.63	16747.6
1419.7	16744.8
1420.78	16741.5
1421.85	16727.6
1422.92	16714.1
1423.99	16709.6
1425.06	16702.9
1426.14	16693.5
1427.21	16681.4
1428.28	16666.8
1429.35	16649.6
1430.42	16629.6
1431.49	16609
1432.56	16588.6
1433.63	16571.5
1434.7	16575.1
1435.77	16574.7
1436.84	16579.3
1437.91	16585.1
1438.98	16590.8
1440.05	16594.9
1441.12	16596.2
1442.18	16593.1
1443.25	16589.1
1444.32	16580.1
1445.39	16568.8
1446.46	16555.8
1447.53	16540.8
1448.59	16539.3
1449.66	16541.7
1450.73	16554.7
1451.8	16552
1452.86	16548.9
1453.93	16541.8
1455	16522.4
1456.06	16508.9
1457.13	16510.5
1458.2	16514.2
1459.26	16513.2
1460.33	16509.4
1461.39	16503.6
1462.46	16489.4
1463.52	16475.3
1464.59	16462.1
1465.65	16454.9
1466.72	16469.3
1467.78	16485.1
1468.85	16495.1
1469.91	16499.8
1470.98	16500.2
1472.04	16497.9
1473.1	16491
1474.17	16480.7
1475.23	16467.7
1476.3	16451.8
1477.36	16449.3
1478.42	16456.6
1479.48	16480.9
1480.55	16500.1
1481.61	16513.6
1482.67	16518.9
1483.73	16516.2
1484.8	16506.3
1485.86	16491.5
1486.92	16468.3
1487.98	16440.1
1489.04	16426.1
1490.1	16422.5
1491.17	16427.9
1492.23	16427.3
1493.29	16420.4
1494.35	16408.7
1495.41	16395.6
1496.47	16381.4
1497.53	16365.9
1498.59	16349.8
1499.65	16334.7
1500.71	16319.7
1501.77	16305
1502.83	16292.5
1503.88	16282.9
1504.94	16281.3
1506	16285.9
1507.06	16296.4
1508.12	16301.7
1509.18	16296.6
1510.23	16283.8
1511.29	16265.7
1512.35	16244.5
1513.41	16222.5
1514.47	16202.5
1515.52	16185.7
1516.58	16179.7
1517.64	16182.3
1518.69	16182.2
1519.75	16182.4
1520.81	16183.3
1521.86	16167.9
1522.92	16150.4
1523.97	16123.9
1525.03	16109
1526.08	16096.9
1527.14	16113.1
1528.2	16098.8
1529.25	16085.3
1530.31	16071.6
1531.36	16058.9
1532.42	16048.4
1533.47	16044.3
1534.52	16043.2
1535.58	16045
1536.63	16049.3
1537.69	16057.1
1538.74	16057.7
1539.79	16057.9
1540.84	16057.6
1541.9	16048.6
1542.95	16038.1
1544	16034.8
1545.06	16033.9
1546.11	16031.6
1547.16	16021.8
1548.21	16011.8
1549.27	15965.8
1550.32	15950.9
1551.37	15947
1552.42	15946.3
1553.47	15949.7
1554.52	15958.3
1555.57	15972
1556.62	15985
1557.67	15997.4
1558.72	16008.3
1559.77	16007.4
1560.82	15993.1
1561.87	15986.1
1562.92	15976.5
1563.97	15966.9
1565.02	15958.2
1566.07	15953.5
1567.12	15952.2
1568.17	15954.4
1569.22	15962.5
1570.27	15966.8
1571.32	15955.8
1572.36	15935.9
1573.41	15918.8
1574.46	15907.3
1575.51	15901.6
1576.56	15900.4
1577.6	15938
1578.65	15935.8
1579.7	15935.4
1580.74	15925.2
1581.79	15915.6
1582.84	15904
1583.88	15889.8
1584.93	15900.5
1585.98	15929.3
1587.02	16008
1588.07	15956.6
1589.11	15860.8
1590.16	15825
1591.2	15815
1592.25	15814.1
1593.29	15862.4
1594.34	15844.1
1595.38	15834.9
1596.43	15829.3
1597.47	15819.3
1598.52	15804.5
1599.56	15785.7
1600.6	15767.2
1601.65	15750.5
1602.69	15736.6
1603.73	15723
1604.78	15714
1605.82	15715.3
1606.86	15726.4
1607.91	15733.3
1608.95	15732.7
1609.99	15725.4
1611.03	15710.1
1612.08	15686.3
1613.12	15654
1614.16	15631.2
1615.2	15618
1616.24	15625
1617.28	15663.3
1618.32	15635.2
1619.36	15595.5
1620.41	15516.6
1621.45	15470.1
1622.49	15467.3
1623.53	15512.2
1624.57	15498
1625.61	15479
1626.65	15455.6
1627.69	15438.9
1628.73	15425.1
1629.76	15413.6
1630.8	15404.4
1631.84	15397.1
1632.88	15391.8
1633.92	15387.8
1634.96	15387.2
1636	15385.9
1637.03	15383.6
1638.07	15378.3
1639.11	15369.8
1640.15	15368.7
1641.19	15367.4
1642.22	15364.6
1643.26	15361
1644.3	15347.3
1645.33	15333.5
1646.37	15319.3
1647.41	15304.7
1648.44	15290.2
1649.48	15276
1650.52	15262.9
1651.55	15248.9
1652.59	15240.6
1653.62	15236.4
1654.66	15235
1655.69	15232.5
1656.73	15223.2
1657.76	15213.5
1658.8	15201.5
1659.83	15190
1660.87	15178.9
1661.9	15169.3
1662.93	15163.4
1663.97	15158.5
1665	15156.5
1666.04	15156.5
1667.07	15158.5
1668.1	15161.7
1669.14	15160.2
1670.17	15153.5
1671.2	15146.4
1672.23	15137.6
1673.27	15126.4
1674.3	15113.4
1675.33	15100.5
1676.36	15089.2
1677.39	15108.2
1678.43	15111.7
1679.46	15101
1680.49	15079.3
1681.52	15063.8
1682.55	15049.8
1683.58	15038.7
1684.61	15026.4
1685.64	15012.4
1686.67	14999.7
1687.7	14986.5
1688.73	14981.1
1689.76	15001.3
1690.79	15000.5
1691.82	15000.5
1692.85	15000
1693.88	14998.8
1694.91	14997.1
1695.94	14994.4
1696.97	14991.1
1698	14987.1
1699.02	14982.4
1700.05	14977
1701.08	14971.4
1702.11	14965.3
1703.14	14957.8
1704.16	14948.8
1705.19	14938.4
1706.22	14926.1
1707.25	14911.7
1708.27	14895.5
1709.3	14877.5
1710.33	14858.9
1711.35	14850.9
1712.38	14838.4
1713.41	14822.8
1714.43	14806.3
1715.46	14790.4
1716.48	14775.4
1717.51	14761.3
1718.53	14748.1
1719.56	14736.2
1720.58	14725.2
1721.61	14715.9
1722.63	14707.9
1723.66	14700.9
1724.68	14695.1
1725.71	14690.5
1726.73	14687
1727.75	14674.3
1728.78	14650.5
1729.8	14632
1730.83	14609.1
1731.85	14596.3
1732.87	14587.3
1733.89	14590.8
1734.92	14593.5
1735.94	14594.3
1736.96	14593.6
1737.98	14590.6
1739.01	14586
1740.03	14578.8
1741.05	14569.2
1742.07	14555.8
1743.09	14537.6
1744.12	14517.2
1745.14	14503
1746.16	14503.3
1747.18	14528.8
1748.2	14507.1
1749.22	14429.8
1750.24	14445.4
1751.26	14479.4
1752.28	14489.5
1753.3	14507.3
1754.32	14468.2
1755.34	14458.6
1756.36	14452.4
1757.38	14449.5
1758.4	14445.7
1759.42	14440.3
1760.44	14433.1
1761.45	14423.3
1762.47	14411.6
1763.49	14383.9
1764.51	14352.2
1765.53	14330.2
1766.55	14311
1767.56	14311.7
1768.58	14320.8
1769.6	14334.8
1770.61	14343
1771.63	14344.6
1772.65	14340
1773.67	14329.2
1774.68	14312.2
1775.7	14289
1776.72	14269.2
1777.73	14247.9
1778.75	14228.3
1779.76	14210.6
1780.78	14195
1781.79	14180.3
1782.81	14167.7
1783.83	14157.2
1784.84	14149.8
1785.85	14151.2
1786.87	14154.9
1787.88	14163.7
1788.9	14167.4
1789.91	14170
1790.93	14166.6
1791.94	14159.4
1792.95	14149
1793.97	14135.4
1794.98	14119.1
1796	14102.5
1797.01	14085.5
1798.02	14068.5
1799.03	14054.3
1800.05	14040.3
1801.06	14028.7
1802.07	14019.6
1803.08	14012.2
1804.1	14004.7
1805.11	13998.6
1806.12	13986.5
1807.13	13973.7
1808.14	13972.2
1809.15	13975.7
1810.17	13980.6
1811.18	13986.9
1812.19	13982.4
1813.2	13962.6
1814.21	13914.5
1815.22	13883.3
1816.23	13853.7
1817.24	13837.9
1818.25	13841.1
1819.26	13855.2
1820.27	13869.6
1821.28	13869.4
1822.29	13863.8
1823.3	13843.7
1824.3	13821.8
1825.31	13803.4
1826.32	13784.7
1827.33	13767.1
1828.34	13750.6
1829.35	13735.4
1830.35	13721
1831.36	13707.2
1832.37	13693.2
1833.38	13675.1
1834.38	13653.1
1835.39	13632.6
1836.4	13613.5
1837.41	13600.2
1838.41	13590.7
1839.42	13578.7
1840.43	13596.4
1841.43	13608
1842.44	13614.5
1843.44	13615.2
1844.45	13608.9
1845.46	13596.4
1846.46	13590.8
1847.47	13585.2
1848.47	13583.4
1849.48	13594.1
1850.48	13571.7
1851.49	13536.5
1852.49	13500.5
1853.49	13476.6
1854.5	13459.8
1855.5	13461.4
1856.51	13459.8
1857.51	13456.6
1858.51	13455.5
1859.52	13450.6
1860.52	13445.6
1861.52	13439.5
1862.53	13433.1
1863.53	13426.4
1864.53	13421.4
1865.54	13421.3
1866.54	13402.7
1867.54	13375.6
1868.54	13351.2
1869.54	13329.6
1870.55	13310.9
1871.55	13298.8
1872.55	13292.1
1873.55	13286.9
1874.55	13285
1875.55	13284.6
1876.55	13282.5
1877.55	13279.9
1878.55	13278.1
1879.55	13276.8
1880.56	13273.2
1881.55	13263.3
1882.56	13236.3
1883.55	13185.9
1884.55	13164.2
1885.55	13174.5
1886.55	13181.2
1887.55	13184.3
1888.55	13184.4
1889.55	13181.4
1890.55	13174.8
1891.55	13165
1892.55	13154
1893.54	13141.7
1894.54	13127.6
1895.54	13115.2
1896.54	13104.8
1897.54	13097.4
1898.53	13092
1899.53	13086.1
1900.53	13081.3
1901.52	13057.3
1902.52	13045.6
1903.52	13034.5
1904.51	13021.1
1905.51	13011
1906.51	13015.6
1907.5	13009.2
1908.5	13000.3
1909.49	12986
1910.49	12970
1911.49	12950.9
1912.48	12934.1
1913.48	12916.7
1914.47	12899.5
1915.46	12883.4
1916.46	12867.5
1917.45	12852.8
1918.45	12838.6
1919.44	12825
1920.44	12810.8
1921.43	12781.2
1922.43	12778.9
1923.42	12768.4
1924.41	12760.9
1925.41	12755.7
1926.4	12739.8
1927.39	12727.5
1928.38	12718.6
1929.38	12713.9
1930.37	12706.3
1931.36	12701.2
1932.35	12712.8
1933.35	12704
1934.34	12690.7
1935.33	12675.7
1936.32	12662.6
1937.31	12649.1
1938.3	12635.4
1939.29	12622.8
1940.29	12610.2
1941.28	12598.5
1942.27	12587.2
1943.26	12575.8
1944.25	12564.1
1945.24	12550.8
1946.23	12540
1947.22	12530.8
1948.21	12522.2
1949.2	12514.1
1950.19	12506.2
1951.18	12498.3
1952.17	12489.9
1953.16	12480.5
1954.14	12469.7
1955.13	12457.3
1956.12	12443.7
1957.11	12428.9
1958.1	12413.5
1959.09	12399
1960.07	12385.1
1961.06	12371.2
1962.05	12358.9
1963.04	12345.6
1964.02	12333.9
1965.01	12319.4
1966	12305.9
1966.99	12297.7
1967.97	12302.5
1968.96	12319.4
1969.95	12321.2
1970.93	12273.4
1971.92	12241.3
1972.9	12233.7
1973.89	12225.8
1974.88	12216.7
1975.86	12208.6
1976.85	12201.4
1977.83	12194.9
1978.82	12189.1
1979.8	12184.2
1980.79	12180.5
1981.77	12178
1982.76	12183.5
1983.74	12185
1984.72	12174.5
1985.71	12153
1986.69	12129
1987.67	12129.7
1988.66	12132.2
1989.64	12135.6
1990.62	12116.6
1991.61	12090.6
1992.59	12063.3
1993.57	12036
1994.56	12019.2
1995.54	12001.5
1996.52	12012.4
1997.5	12001.2
1998.49	11984.4
1999.47	11976.2
2000.45	11960.3
2001.43	11954.3
2002.41	11956.6
2003.39	11960.6
2004.38	11962.5
2005.36	11949.1
2006.34	11932.9
2007.32	11919.4
2008.3	11911.2
2009.28	11903.6
2010.26	11895.3
2011.24	11886.5
2012.22	11877.3
2013.2	11862.2
2014.18	11844.4
2015.16	11825.2
2016.14	11805.6
2017.12	11791.9
2018.1	11780.6
2019.07	11772.1
2020.05	11765.3
2021.03	11761.4
2022.01	11759.4
2022.99	11759.9
2023.97	11760.3
2024.95	11761.2
2025.92	11759.9
2026.9	11751.1
2027.88	11733.1
2028.86	11717.8
2029.83	11698.5
2030.81	11684.3
2031.79	11669.7
2032.76	11655
2033.74	11639
2034.72	11620.9
2035.69	11598.6
2036.67	11566.4
2037.65	11549.4
2038.62	11536.4
2039.6	11530.1
2040.57	11528.2
2041.55	11525.4
2042.52	11516.5
2043.5	11507.3
2044.47	11497.1
2045.45	11486.2
2046.42	11474
2047.4	11461
2048.37	11445.9
2049.35	11441.2
2050.32	11444.1
2051.29	11441.5
2052.27	11437.1
2053.24	11426.3
2054.21	11416.1
2055.19	11399.1
2056.16	11379.9
2057.13	11360.2
2058.11	11342.2
2059.08	11326.3
2060.05	11310.8
2061.02	11296.4
2062	11283.2
2062.97	11271.3
2063.94	11260.5
2064.91	11250.9
2065.89	11242.8
2066.86	11237
2067.83	11235.8
2068.8	11248.5
2069.77	11246.5
2070.74	11247.8
2071.71	11228.3
2072.68	11207.8
2073.65	11184.4
2074.62	11150.9
2075.59	11132.8
2076.56	11116.2
2077.53	11102.7
2078.5	11098.9
2079.47	11095.5
2080.44	11089.9
2081.41	11079.5
2082.38	11073.1
2083.35	11068.4
2084.32	11064.7
2085.29	11062.8
2086.26	11058.4
2087.23	11043.9
2088.19	11020.3
2089.16	11001.2
2090.13	10984.8
2091.1	10969.9
2092.07	10961.3
2093.03	10947.2
2094	10935
2094.97	10922.6
2095.94	10911.4
2096.9	10902.3
2097.87	10894.7
2098.84	10894.5
2099.8	10894.6
2100.77	10894.9
2101.74	10896.2
2102.7	10879.1
2103.67	10859.4
2104.63	10836.8
2105.6	10820.3
2106.56	10802.8
2107.53	10794.9
2108.49	10785.6
2109.46	10781.8
2110.42	10780.2
2111.39	10765.9
2112.35	10753.8
2113.32	10743.5
2114.28	10735.5
2115.25	10730.2
2116.21	10719
2117.17	10710.6
2118.14	10693.7
2119.1	10673.5
2120.07	10659.9
2121.03	10647.9
2121.99	10638.7
2122.96	10632.1
2123.92	10631.7
2124.88	10627.5
2125.84	10629
2126.81	10625.6
2127.77	10617.3
2128.73	10604
2129.69	10586
2130.65	10562.7
2131.62	10540.7
2132.58	10520.3
2133.54	10509
2134.5	10499.4
2135.46	10492.4
2136.42	10482.2
2137.38	10469.8
2138.34	10455.9
2139.3	10441.1
2140.26	10424.9
2141.22	10407.4
2142.18	10390
2143.14	10378
2144.1	10375
2145.06	10372.4
2146.02	10374.3
2146.98	10379.3
2147.94	10387.4
2148.9	10393.8
2149.86	10386.7
2150.82	10374.9
2151.78	10359
2152.74	10340.1
2153.69	10316.5
2154.65	10296.8
2155.61	10290
2156.57	10287.8
2157.53	10277.8
2158.48	10265.6
2159.44	10249.2
2160.4	10230.2
2161.36	10205.8
2162.31	10179
2163.27	10148
2164.23	10118.5
2165.18	10126
2166.14	10136
2167.1	10149.5
2168.05	10161.3
2169.01	10155.4
2169.96	10149.9
2170.92	10136.8
2171.88	10117.8
2172.83	10092.2
2173.79	10064.2
2174.74	10037.1
2175.7	10011.4
2176.65	9986.97
2177.6	9963.96
2178.56	9940.94
2179.51	9920.08
2180.47	9905.25
2181.42	9898.64
2182.38	9901.55
2183.33	9898.11
2184.28	9894.42
2185.24	9878.54
2186.19	9866.93
2187.14	9851.84
2188.1	9830.15
2189.05	9814.18
2190	9796.9
2190.96	9791.61
2191.91	9787.54
2192.86	9783.03
2193.81	9779.2
2194.76	9776.7
2195.72	9775.79
2196.67	9756.84
2197.62	9723.95
2198.57	9706
2199.52	9702.1
2200.47	9713.24
2201.43	9725.13
2202.38	9717.82
2203.33	9694.61
2204.28	9678.12
2205.23	9656.88
2206.18	9637.1
2207.13	9617.97
2208.08	9611.96
2209.03	9607.36
2209.98	9603.99
2210.93	9598.79
2211.88	9595.39
2212.83	9591.02
2213.78	9588.94
2214.73	9584.91
2215.67	9576.4
2216.62	9563.15
2217.57	9546.74
2218.52	9530.6
2219.47	9521.24
2220.42	9513.2
2221.37	9505.24
2222.31	9497.7
2223.26	9490.65
2224.21	9485.12
2225.16	9479.29
2226.1	9473.4
2227.05	9467.63
2228	9461.92
2228.94	9456.67
2229.89	9451.73
2230.84	9447.12
2231.78	9442.19
2232.73	9435.85
2233.68	9423.07
2234.62	9405.38
2235.57	9390.19
2236.51	9372.85
2237.46	9361.76
2238.41	9357.28
2239.35	9354.34
2240.3	9351.74
2241.24	9354.97
2242.19	9355.39
2243.13	9347.3
2244.07	9342.34
2245.02	9338.58
2245.96	9334.51
2246.91	9329.38
2247.85	9323.38
2248.8	9315.65
2249.74	9306.98
2250.68	9303.66
2251.63	9311.43
2252.57	9309.61
2253.51	9298.96
2254.46	9291.07
2255.4	9283.28
2256.34	9277.13
2257.28	9270.71
2258.23	9271.55
2259.17	9276.81
2260.11	9284.92
2261.05	9289.06
2262	9284.38
2262.94	9277.48
2263.88	9271.06
2264.82	9267.29
2265.76	9263.17
2266.7	9256.2
2267.64	9246.63
2268.58	9236.06
2269.53	9236.37
2270.47	9232.05
2271.41	9227.49
2272.35	9222.82
2273.29	9219.18
2274.23	9211.39
2275.17	9198.93
2276.11	9188.66
2277.05	9178.05
2277.99	9174.46
2278.93	9176.34
2279.86	9172.38
2280.8	9164.07
2281.74	9153.82
2282.68	9153.98
2283.62	9180.53
2284.56	9195.43
2285.5	9193.37
2286.44	9179.65
2287.37	9169.5
2288.31	9158.91
2289.25	9146.44
2290.19	9135.3
2291.12	9125.46
2292.06	9119.96
2293	9118.44
2293.94	9125.01
2294.87	9145.28
2295.81	9161.13
2296.75	9147.96
2297.68	9133.33
2298.62	9122.12
2299.55	9109.63
2300.49	9097.13
2301.43	9085.52
2302.36	9075.85
2303.3	9067.29
2304.23	9059.68
2305.17	9051.56
2306.1	9043.94
2307.04	9035.42
2307.98	9027.02
2308.91	9019.91
2309.84	9013.87
2310.78	9008.85
2311.71	9004.03
2312.65	8995.24
2313.58	8981.32
2314.52	8962.96
2315.45	8944.06
2316.38	8927.19
2317.32	8913.48
2317.72	8908.31
2318.66	8903.49
2319.6	8902.98
2320.54	8903.72
2321.48	8903.53
2322.41	8897.55
2323.35	8884.58
2324.29	8871.78
2325.23	8861.38
2326.16	8853.32
2327.1	8847.23
2328.04	8845.06
2328.97	8844.63
2329.91	8845.73
2330.85	8847.31
2331.78	8844.83
2332.72	8836.61
2333.66	8826.72
2334.59	8814.27
2335.53	8800.6
2336.46	8783.28
2337.4	8774.53
2338.33	8769.32
2339.27	8770.02
2340.2	8766.15
2341.14	8755.6
2342.07	8747.12
2343.01	8731.07
2343.94	8734.44
2344.88	8744.19
2345.81	8746.88
2346.75	8739.79
2347.68	8729.71
2348.61	8715.26
2349.55	8695.04
2350.48	8707.51
2351.41	8702.22
2352.35	8694.79
2353.28	8685.04
2354.21	8673.09
2355.15	8659.89
2356.08	8643.35
2357.01	8632.72
2357.94	8623.72
2358.88	8615.81
2359.81	8608.75
2360.74	8602.45
2361.67	8596.35
2362.6	8588.7
2363.54	8579.43
2364.47	8567.45
2365.4	8565.32
2366.33	8566.65
2367.26	8566.38
2368.19	8560.39
2369.12	8556.7
2370.05	8552.35
2370.98	8536.71
2371.91	8524.87
2372.84	8517.83
2373.77	8515.28
2374.7	8519.14
2375.63	8525.77
2376.56	8532.58
2377.49	8539.14
2378.42	8541.73
2379.35	8533.62
2380.28	8519.05
2381.21	8498.56
2382.14	8478.85
2383.07	8468.17
2384	8468.6
2384.92	8474.61
2385.85	8484.48
2386.78	8493.47
2387.71	8488.92
2388.64	8481.23
2389.56	8472.42
2390.49	8460.63
2391.42	8449.13
2392.35	8437.98
2393.27	8429.81
2394.2	8422.93
2395.13	8418.38
2396.05	8415.51
2396.98	8415.3
2397.91	8416.16
2398.83	8417.01
2399.76	8414.15
2400.69	8409.84
2401.61	8404.13
2402.54	8396.65
2403.46	8387.56
2404.39	8376.74
2405.31	8364.5
2406.24	8352.35
2407.17	8339.93
2408.09	8329.8
2409.01	8320.25
2409.94	8312.03
2410.86	8304.16
2411.79	8300.61
2412.71	8305.72
2413.64	8302.9
2414.56	8291.03
2415.49	8272.57
2416.41	8234.16
2417.33	8231.89
2418.26	8230.93
2419.18	8231.66
2420.1	8233.03
2421.03	8232.71
2421.95	8227.5
2422.87	8213.8
2423.79	8193.41
2424.72	8182.13
2425.64	8170.73
2426.56	8163.82
2427.48	8157.79
2428.41	8159.11
2429.33	8160.09
2430.25	8159.71
2431.17	8158.45
2432.09	8151.74
2433.01	8144.34
2433.93	8134.57
2434.86	8123.83
2435.78	8111.86
2436.7	8100.33
2437.62	8094.1
2438.54	8083.69
2439.46	8073.24
2440.38	8061.04
2441.3	8050.92
2442.22	8044.72
2443.14	8037.15
2444.06	8032.22
2444.98	8025.99
2445.9	8019.2
2446.82	8011.58
2447.73	8003.42
2448.65	7994.44
2449.57	7984.64
2450.49	7973.88
2451.41	7962.22
2452.33	7949.94
2453.25	7938.38
2454.17	7937.31
2455.08	7934.98
2456	7931.01
2456.92	7926
2457.84	7920.92
2458.75	7914.73
2459.67	7905.42
2460.59	7890.94
2461.51	7872.8
2462.42	7856.32
2463.34	7841.34
2464.26	7827.03
2465.17	7821.96
2466.09	7819.2
2467	7815.1
2467.92	7810.28
2468.84	7803.51
2469.75	7795.63
2470.67	7786.86
2471.58	7776.98
2472.5	7765.96
2473.42	7754.22
2474.33	7745.37
2475.25	7741.28
2476.16	7738.57
2477.08	7731.53
2477.99	7727.69
2478.9	7718.73
2479.82	7708.27
2480.73	7719.64
2481.65	7744.68
2482.56	7767.26
2483.47	7762
2484.39	7665.74
2485.3	7678.46
2486.22	7673.66
2487.13	7679.07
2488.04	7683.36
2488.96	7687.4
2489.87	7690.7
2490.78	7694.38
2491.69	7693.09
2492.61	7684.9
2493.52	7673.48
2494.43	7662.01
2495.34	7651.08
2496.25	7640.01
2497.17	7628.28
2498.08	7615.09
2498.99	7605.54
2499.9	7599.95
2500.81	7597.71
2501.72	7599.32
2502.63	7613.17
2503.55	7623.58
2504.46	7626.86
2505.37	7612.95
2506.28	7591.56
2507.19	7569.11
2508.1	7553.1
2509.01	7558.38
2509.92	7559.4
2510.83	7566.1
2511.74	7570.29
2512.65	7568.52
2513.56	7557.07
2514.47	7546.1
2515.37	7532.96
2516.28	7519.87
2517.19	7515.65
2518.1	7517.76
2519.01	7519.06
2519.92	7521.36
2520.83	7519.58
2521.73	7516.94
2522.64	7513.07
2523.55	7506.55
2524.46	7498.4
2525.37	7489.15
2526.27	7479.15
2527.18	7471.37
2528.09	7464.53
2529	7466.64
2529.9	7468.03
2530.81	7472.31
2531.72	7472.74
2532.62	7468.16
2533.53	7461.79
2534.44	7450.35
2535.34	7425.39
2536.25	7414.98
2537.15	7405.35
2538.06	7397.23
2538.96	7390.95
2539.87	7387.92
2540.78	7386.72
2541.68	7377.07
2542.59	7375.08
2543.49	7372.9
2544.4	7375.5
2545.3	7383.58
2546.21	7387.94
2547.11	7383.59
2548.01	7369.65
2548.92	7345.23
2549.82	7312.44
2550.73	7297.75
2551.63	7287.13
2552.53	7279.04
2553.44	7272.19
2554.34	7265.05
2555.24	7259.24
2556.15	7254.13
2557.05	7249.81
2557.95	7246.28
2558.86	7243.61
2559.76	7241.97
2560.66	7241.6
2561.56	7243.35
2562.46	7241.23
2563.37	7229.79
2564.27	7216.22
2565.17	7199.45
2566.07	7175.12
2566.97	7151.69
2567.88	7135.74
2568.78	7130.25
2569.68	7131.53
2570.58	7134.87
2571.48	7127.39
2572.38	7120.17
2573.28	7113.27
2574.18	7103.06
2575.08	7094.3
2575.98	7091.72
2576.88	7086.81
2577.78	7080.71
2578.68	7069.5
2579.58	7052.32
2580.48	7039.57
2581.38	7032.85
2582.28	7026.48
2583.18	7022.97
2584.08	7019.94
2584.98	7019.73
2585.88	7021.37
2586.77	7023
2587.67	7023.21
2588.57	7018.33
2589.47	7005.75
2590.37	6987.11
2591.27	6974.76
2592.16	6962.88
2593.06	6956.85
2593.96	6950.91
2594.86	6946.27
2595.75	6942.63
2596.65	6940.16
2597.55	6936.23
2598.45	6927.19
2599.34	6918.59
2600.24	6910.29
2601.13	6902.22
2602.03	6894.53
2602.93	6886.96
2603.82	6880.13
2604.72	6875.31
2605.62	6872.63
2606.51	6870.82
2607.41	6869.18
2608.3	6867.15
2609.2	6865.79
2610.09	6840.54
2610.99	6845.39
2611.88	6851.72
2612.78	6851.75
2613.67	6846.62
2614.57	6836.35
2615.46	6821.87
2616.36	6801.63
2617.25	6788.32
2618.14	6776.34
2619.04	6766.86
2619.93	6760.2
2620.83	6757.44
2621.72	6756.54
2622.61	6755.29
2623.5	6744.54
2624.4	6737.07
2625.29	6731.13
2626.18	6727.86
2627.08	6727.54
2627.97	6731.04
2628.86	6741.19
2629.75	6744.52
2630.65	6739.43
2631.54	6726.64
2632.43	6704.37
2633.32	6680.94
2634.21	6663.9
2635.11	6653.79
2636	6651.36
2636.89	6655.59
2637.78	6660.73
2638.67	6660.13
2639.56	6655.58
2640.45	6637.81
2641.34	6609.6
2642.23	6586.47
2643.12	6564.43
2644.01	6550.2
2644.9	6539.95
2645.79	6532.74
2646.68	6528.7
2647.57	6527.71
2648.46	6529.45
2649.35	6533.55
2650.24	6538.08
2651.13	6518.94
2652.02	6485
2652.91	6445.06
2653.8	6446.61
2654.69	6450.65
2655.58	6450.03
2656.46	6450.23
2657.35	6452.21
2658.24	6453.06
2659.13	6450.93
2660.02	6447.24
2660.9	6441
2661.79	6432.03
2662.68	6414.54
2663.57	6403.26
2664.45	6398.7
2665.34	6403.55
2666.23	6409.14
2667.11	6408.14
2668	6402.64
2668.89	6394.06
2669.77	6386.88
2670.66	6379.5
2671.55	6370.66
2672.43	6362.11
2673.32	6352.83
2674.21	6343.63
2675.09	6335.57
2675.98	6329.52
2676.86	6327.84
2677.75	6325.93
2678.63	6322.75
2679.52	6316.88
2680.4	6304.72
2681.29	6289.97
2682.17	6276.31
2683.06	6266.66
2683.94	6260.74
2684.82	6257.68
2685.71	6264.66
2686.59	6275.34
2687.48	6282.38
2688.36	6269.27
2689.24	6242.45
2690.13	6213.25
2691.01	6197
2691.89	6184.18
2692.78	6172.19
2693.66	6166.73
2694.54	6175.35
2695.43	6170.97
2696.31	6170.38
2697.19	6163.24
2698.07	6153.48
2698.96	6142.94
2699.84	6131.64
2700.72	6120.18
2701.6	6108.73
2702.48	6099.32
2703.36	6088.66
2704.25	6078.61
2705.13	6069.04
2706.01	6061.56
2706.89	6075.64
2707.77	6090.03
2708.65	6098.34
2709.53	6102.1
2710.41	6079.92
2711.29	6066.19
2712.17	6051.01
2713.05	6034.27
2713.93	6018.19
2714.81	6003.83
2715.69	5994.2
2716.57	5994.95
2717.45	5999
2718.33	6001.82
2719.21	6003.75
2720.09	6002.7
2720.97	5993.47
2721.85	5980.46
2722.73	5971.68
2723.61	5965.52
2724.48	5961.12
2725.36	5967.64
2726.24	5974.88
2727.12	5970.72
2728	5964.62
2728.88	5951.79
2729.75	5928.13
2730.63	5908.91
2731.51	5903.29
2732.39	5904.08
2733.26	5911.74
2734.14	5926.04
2735.02	5925.6
2735.89	5918.57
2736.77	5905.64
2737.65	5883.14
2738.52	5866.76
2739.4	5854.05
2740.28	5851.41
2741.15	5846.82
2742.03	5842.83
2742.9	5838.74
2743.78	5834.35
2744.65	5829.67
2745.53	5823.77
2746.41	5817.71
2747.28	5811.01
2748.16	5805.35
2749.03	5805.23
2749.91	5805.66
2750.78	5801.64
2751.66	5794.34
2752.53	5787.64
2753.4	5784.59
2754.28	5781.26
2755.15	5782.64
2756.02	5784.93
2756.9	5786.48
2757.77	5786.84
2758.65	5784.98
2759.52	5782.33
2760.39	5778.66
2761.27	5773.85
2762.14	5767.79
2763.01	5760.63
2763.88	5757.45
2764.76	5767.9
2765.63	5757.67
2766.5	5743.54
2767.37	5717.48
2768.25	5709.89
2769.12	5712.67
2769.99	5713.19
2770.86	5702.32
2771.73	5694.31
2772.61	5686
2773.48	5676.13
2774.35	5663.73
2775.22	5652.37
2776.09	5642.47
2776.96	5641.95
2777.83	5644.01
2778.7	5650.03
2779.57	5652.36
2780.44	5654.58
2781.31	5657.3
2782.18	5659.31
2783.05	5660.48
2783.92	5662.41
2784.79	5662.44
2785.66	5644.54
2786.53	5585.81
2787.4	5588.08
2788.27	5584.74
2789.14	5597.22
2790.01	5580.6
2790.88	5564.53
2791.75	5554.09
2792.62	5549.97
2793.48	5550.18
2794.35	5546.72
2795.22	5543.25
2796.09	5540.11
2796.96	5536.52
2797.82	5532.3
2798.69	5527.5
2799.56	5522.2
2800.43	5516.28
2801.29	5509.58
2802.16	5502.37
2803.03	5495.26
2803.9	5489.19
2804.76	5483.89
2805.63	5479.06
2806.5	5474.85
2807.36	5471.35
2808.23	5468.56
2809.09	5464.55
2809.96	5458.86
2810.83	5451.68
2811.69	5443.15
2812.56	5435.52
2813.42	5427.06
2814.29	5417.57
2815.15	5407.24
2816.02	5396.07
2816.88	5384.36
2817.75	5371.42
2818.61	5364.37
2819.48	5369.8
2820.34	5382.45
2821.21	5399.56
2822.07	5413.4
2822.94	5407.15
2823.8	5392.26
2824.66	5382.4
2825.53	5373.96
2826.39	5365.22
2827.26	5358.36
2828.12	5352.04
2828.98	5347.28
2829.85	5343.37
2830.71	5340.53
2831.57	5337.38
2832.43	5331.7
2833.3	5324.7
2834.16	5315.56
2835.02	5305.45
2835.88	5296
2836.75	5287.25
2837.61	5281.98
2838.47	5285.28
2839.33	5282.83
2840.19	5278.36
2841.06	5271.79
2841.92	5270.5
2842.78	5271.5
2843.64	5274.22
2844.5	5276.75
2845.36	5270.57
2846.22	5266.06
2847.08	5257.61
2847.94	5242.24
2848.81	5230.46
2849.67	5221.43
2850.53	5214.97
2851.39	5209.67
2852.25	5210.44
2853.11	5213.01
2853.97	5215.88
2854.82	5215.7
2855.68	5216.22
2856.54	5215.88
2857.4	5215.46
2858.26	5214.01
2859.12	5210.51
2859.98	5201.66
2860.84	5192.4
2861.7	5181.4
2862.56	5176.67
2863.41	5168.96
2864.27	5166.45
2865.13	5157.43
2865.99	5143.94
2866.85	5136.34
2867.7	5130.29
2868.56	5132.3
2869.42	5130.57
2870.28	5121.62
2871.13	5110.98
2871.99	5109.02
2872.85	5106.31
2873.7	5102.71
2874.56	5097.91
2875.42	5092.06
2876.27	5085.17
2877.13	5077.98
2877.99	5064.91
2878.84	5049.53
2879.7	5034.44
2880.56	5026.64
2881.41	5053.04
2882.27	5082.3
2883.12	5063.39
2883.98	5052.1
2884.83	5042.63
2885.69	5034.31
2886.54	5026.72
2887.4	5019.55
2888.25	4999.58
2889.11	4993.9
2889.96	4991.48
2890.82	4993.2
2891.67	4996.04
2892.52	4995.4
2893.38	4991.78
2894.23	4984.8
2895.09	4975.36
2895.94	4953.83
2896.79	4945.73
2897.65	4945.69
2898.5	4957.46
2899.35	4960.85
2900.21	4964.09
2901.06	4963.66
2901.91	4958.43
2902.76	4950.22
2903.62	4938.75
2904.47	4924.55
2905.32	4907.59
2906.17	4889.7
2907.03	4896.43
2907.88	4893.13
2908.73	4890.18
2909.58	4885.7
2910.43	4879.8
2911.28	4870.58
2912.14	4864.81
2912.99	4862.44
2913.84	4861.02
2914.69	4858.51
2915.54	4853.92
2916.39	4848.77
2917.24	4838.1
2918.09	4819.26
2918.94	4809.8
2919.79	4796.16
2920.64	4791.05
2921.49	4793.03
2922.34	4804.46
2923.19	4812.15
2924.04	4813.48
2924.89	4806.7
2925.74	4795.59
2926.59	4781.79
2927.44	4771.5
2928.29	4762.63
2929.14	4754.95
2929.98	4748.27
2930.83	4742.35
2931.68	4737.44
2932.53	4733.2
2933.38	4729.7
2934.23	4726.52
2935.07	4723.6
2935.92	4720.55
2936.77	4715.65
2937.62	4708.59
2938.47	4698.64
2939.31	4690.46
2940.16	4684.2
2941.01	4679.97
2941.85	4678.49
2942.7	4679.03
2943.55	4682.47
2944.39	4687.31
2945.24	4688.53
2946.09	4684.86
2946.93	4670.21
2947.78	4656.78
2948.63	4645.51
2949.47	4634.56
2950.32	4623.87
2951.16	4612.26
2952.01	4604.44
2952.85	4602.19
2953.7	4602.57
2954.55	4604.87
2955.39	4604.93
2956.24	4604.45
2957.08	4604.84
2957.92	4604.83
2958.77	4604.75
2959.61	4604.1
2960.46	4601.77
2961.3	4597.16
2962.15	4584.27
2962.99	4577.45
2963.83	4570.11
2964.68	4562.31
2965.52	4554.52
2966.37	4546.72
2967.21	4539.05
2968.05	4531.67
2968.9	4524.52
2969.74	4517.81
2970.58	4512.17
2971.42	4521.01
2972.27	4525.95
2973.11	4525.68
2973.95	4521.48
2974.79	4511.75
2975.64	4501.91
2976.48	4494.97
2977.32	4491.91
2978.16	4490.56
2979	4489.92
2979.85	4490.52
2980.69	4492.36
2981.53	4494.69
2982.37	4490.69
2983.21	4481.36
2984.05	4470.99
2984.89	4462.26
2985.73	4455.19
2986.57	4449.69
2987.41	4445.23
2988.25	4443.38
2989.1	4442.85
2989.94	4443.6
2990.77	4445.24
2991.62	4447.13
2992.45	4447.82
2993.29	4448.78
2994.13	4449.6
2994.97	4450.35
2995.81	4450.4
2996.65	4449.4
2997.49	4449
2998.33	4447.17
2999.17	4407.97
