200.833	16062.2
202.102	16097
203.371	16142.9
204.639	16086.2
205.907	16110.5
207.175	16153.3
208.442	16212.9
209.71	16227.7
210.977	16229.6
212.244	16231.1
213.511	16233.5
214.777	16239
216.042	16245.6
217.309	16255.4
218.575	16269.6
219.84	16290
221.106	16320.2
222.371	16356
223.635	16391
224.9	16424.8
226.165	16457.8
227.429	16489.5
228.694	16520.7
229.956	16546.2
231.22	16573.2
232.484	16600.4
233.747	16635.7
235.011	16678.5
236.272	16721.1
237.535	16754.3
238.798	16782.9
240.06	16809.4
241.321	16828.5
242.583	16843.1
243.845	16850.7
245.105	16866
246.367	16899.7
247.628	16925.5
248.888	16947
250.149	16962.7
251.409	16973.2
252.67	16978.8
253.928	16980.1
255.189	16976.3
256.447	16969.8
257.707	16962.1
258.966	16969
260.224	17027.1
261.483	17056.7
262.742	17073.7
263.999	17080
265.257	17089.7
266.514	17095.8
267.772	17089.5
269.028	17106.2
270.286	17136.3
271.543	17172.4
272.799	17208.9
274.056	17241.5
275.311	17268.5
276.568	17292.4
277.823	17313.2
279.079	17330.7
280.333	17344.3
281.589	17354.3
282.843	17362
284.099	17368.6
285.352	17378.7
286.607	17388.8
287.86	17406.7
289.114	17427.9
290.368	17451.6
291.621	17478.2
292.875	17505.5
294.127	17537.2
295.38	17543.2
296.632	17533.6
297.884	17535.6
299.137	17537.8
300.388	17545.1
301.641	17559
302.891	17577.5
304.142	17595.1
305.394	17610.6
306.644	17624
307.894	17633.4
309.146	17640.6
310.395	17645.8
311.645	17649.4
312.895	17651.2
314.144	17653.1
315.393	17658.6
316.642	17666.4
317.892	17692.7
319.14	17713.5
320.388	17724.2
321.637	17729.5
322.885	17735.4
324.132	17745.3
325.38	17759.5
326.628	17775.2
327.875	17794
329.122	17818.9
330.368	17845.4
331.614	17872.1
332.862	17897.7
334.108	17920.6
335.353	17940.3
336.599	17953.3
337.844	17965.7
339.089	17975.3
340.335	17982.5
341.58	17988.5
342.824	17997.2
344.068	18006.7
345.312	18014.8
346.556	18022.5
347.8	18029.1
349.043	18034.6
350.286	18039.1
351.53	18048.4
352.774	18074.1
354.016	18095.9
355.259	18107.6
356.501	18116.1
357.743	18111.4
358.985	18092.4
360.227	18074.7
361.468	18059.8
362.709	18052.4
363.95	18052.9
365.191	18059.6
366.432	18071.5
367.672	18089.4
368.912	18113.9
370.152	18142.9
371.392	18165.3
372.632	18167.3
373.871	18164.8
375.11	18156.4
376.348	18148.1
377.587	18151.6
378.825	18158
380.064	18170.8
381.302	18187
382.54	18205.5
383.778	18225.5
385.016	18247.9
386.253	18262.2
387.489	18276.4
388.726	18289
389.963	18302.4
391.199	18317.7
392.436	18336.3
393.672	18359
394.907	18376.7
396.142	18392.7
397.378	18405.6
398.614	18415.1
399.849	18422.4
401.082	18427.7
402.317	18431.7
403.552	18434.7
404.786	18439.7
406.019	18443.5
407.253	18446.5
408.487	18447.7
409.721	18448.4
410.953	18446.6
412.186	18442.2
413.419	18436.1
414.651	18431.9
415.883	18431.1
417.116	18435.1
418.347	18457.3
419.579	18476.3
420.811	18505.5
422.041	18528
423.272	18539
424.504	18538
425.733	18528.5
426.964	18500.7
428.194	18468
429.424	18474.9
430.654	18503.2
431.883	18556.5
433.113	18547.9
434.341	18559.4
435.571	18570.3
436.799	18570.8
438.028	18567.6
439.257	18564.8
440.484	18566.9
441.713	18591.6
442.94	18655
444.168	18661.9
445.394	18642.4
446.622	18630
447.848	18626.8
449.076	18630.9
450.301	18640.4
451.528	18656.8
452.754	18674.5
453.979	18694.9
455.205	18709.8
456.43	18709.9
457.656	18709.8
458.88	18714.9
460.106	18719.2
461.33	18722.5
462.554	18725.4
463.779	18728.2
465.002	18730.5
466.225	18730.1
467.45	18727.4
468.672	18726.8
469.895	18726
471.119	18728.2
472.341	18729.2
473.563	18726.3
474.786	18720.9
476.008	18707.2
477.229	18695.4
478.452	18691.8
479.673	18690.6
480.894	18690.3
482.115	18689.9
483.337	18689.6
484.557	18683.1
485.777	18672.9
486.997	18658
488.218	18649.5
489.438	18645.2
490.657	18656.7
491.876	18659.7
493.096	18658.8
494.315	18652.3
495.533	18647.7
496.752	18637
497.97	18625.8
499.188	18613.8
500.407	18616
501.625	18623.8
502.842	18635.2
504.059	18645.2
505.276	18656
506.493	18659.8
507.71	18657.1
508.926	18644.3
510.142	18646.6
511.358	18658.5
512.575	18678.6
513.791	18704.3
515.006	18727.3
516.222	18748.7
517.437	18769.1
518.651	18788.1
519.866	18805.4
521.081	18821.1
522.295	18835
523.509	18847.1
524.723	18856
525.937	18854.7
527.15	18834.3
528.363	18818.3
529.576	18805.3
530.789	18792.2
532.002	18770
533.215	18784.5
534.426	18806.9
535.638	18832.8
536.85	18852.8
538.061	18865.9
539.273	18872.8
540.484	18873.7
541.695	18870.9
542.906	18864.1
544.117	18853.9
545.327	18840.1
546.537	18828.2
547.747	18819
548.957	18817
550.167	18842.9
551.377	18853.3
552.585	18831.6
553.794	18810.6
555.003	18815.1
556.212	18827.3
557.421	18838.9
558.628	18846.9
559.836	18853.4
561.044	18857.5
562.252	18861.3
563.458	18864.4
564.666	18867.2
565.873	18870.5
567.08	18874.3
568.286	18878.4
569.493	18882.9
570.699	18888.1
571.904	18893.7
573.111	18900.2
574.317	18906.5
575.521	18905.5
576.727	18897.1
577.932	18879.5
579.136	18869.8
580.341	18864.9
581.544	18872.3
582.749	18884.7
583.954	18902.1
585.156	18929.5
586.361	18939.3
587.563	18938.5
588.767	18920.9
589.97	18890.6
591.172	18868.4
592.375	18846.8
593.577	18850.6
594.78	18851.5
595.981	18865.6
597.183	18887.9
598.384	18907.8
599.586	18911
600.786	18888.7
601.988	18857.5
603.188	18838.7
604.389	18820.2
605.589	18812.3
606.79	18808.8
607.989	18809.9
609.188	18815
610.389	18823.4
611.587	18833.3
612.787	18826.9
613.986	18807
615.184	18787.3
616.383	18764.5
617.581	18746.7
618.78	18723.5
619.977	18700.4
621.174	18679.5
622.373	18660.7
623.57	18644.5
624.766	18642.1
625.964	18643.9
627.16	18652.6
628.356	18663.5
629.554	18673.3
630.749	18681.4
631.945	18678.3
633.14	18675.5
634.337	18666.8
635.532	18654.1
636.726	18636.2
637.921	18618.9
639.117	18604.8
640.311	18594.5
641.505	18588.5
642.699	18584.9
643.892	18584.7
645.087	18587.6
646.28	18593.6
647.473	18601.6
648.666	18606.8
649.859	18616.8
651.051	18628.1
652.245	18634.2
653.437	18627.4
654.629	18589.2
655.821	18580.3
657.012	18591.5
658.204	18601.4
659.395	18607
660.586	18613.6
661.777	18623
662.967	18630.9
664.158	18638
665.349	18645.3
666.539	18652.4
667.729	18654.4
668.919	18655.3
670.109	18656.4
671.298	18658.5
672.487	18661.7
673.676	18666.3
674.865	18671.4
676.053	18677.4
677.242	18683.9
678.43	18692.3
679.616	18712.9
680.804	18725.3
681.992	18730.5
683.179	18670.4
684.366	18648
685.554	18648.2
686.74	18646.6
687.927	18644.8
689.114	18642.4
690.3	18643.6
691.486	18642.4
692.671	18627.9
693.856	18615.4
695.042	18604.1
696.227	18595.2
697.413	18587.4
698.598	18580.5
699.781	18574.5
700.966	18571.6
702.15	18569
703.334	18570
704.518	18566.6
705.701	18568
706.885	18555.6
708.068	18529.1
709.252	18509.6
710.433	18492.8
711.616	18481.2
712.799	18486.1
713.98	18507.9
715.163	18517.5
716.345	18513.1
717.527	18513.2
718.707	18496.6
719.889	18479.6
721.071	18465
722.25	18460
723.432	18464.7
724.611	18475.5
725.792	18487.3
726.972	18495.1
728.151	18508
729.332	18522.3
730.512	18532.8
731.69	18539.5
732.87	18538.7
734.048	18530.6
735.227	18531.4
736.405	18533.1
737.584	18534.8
738.761	18542.6
739.94	18551.7
741.117	18562.7
742.295	18575
743.471	18585.2
744.649	18582.3
745.825	18569.3
747.003	18567.4
748.179	18569.6
749.356	18582.5
750.531	18599.8
751.708	18617.4
752.883	18623.6
754.059	18619.9
755.234	18603
756.409	18573.6
757.585	18541
758.759	18535.9
759.934	18535.2
761.108	18537.4
762.282	18538.5
763.456	18537.9
764.63	18537.9
765.803	18538.9
766.977	18518.7
768.15	18483.3
769.323	18463.3
770.496	18447.7
771.668	18444.6
772.841	18494.1
774.014	18455.9
775.185	18427.5
776.357	18414.6
777.528	18414.1
778.701	18420.9
779.872	18426.8
781.042	18430.3
782.213	18397.9
783.383	18371.9
784.555	18339.5
785.725	18310.5
786.895	18295.6
788.064	18290.9
789.234	18297.6
790.404	18314.5
791.573	18303.5
792.742	18275.6
793.911	18249.6
795.08	18239.9
796.248	18235.4
797.416	18235.5
798.584	18239
799.753	18246.9
800.921	18250.8
802.088	18266.5
803.256	18275.9
804.423	18283.4
805.59	18282
806.756	18276.6
807.923	18268.3
809.089	18252.8
810.256	18247.5
811.422	18247.4
812.587	18247.9
813.753	18248.5
814.918	18249.5
816.084	18250.3
817.249	18251.3
818.414	18246.3
819.578	18243.8
820.743	18242.5
821.907	18243.7
823.072	18248.4
824.236	18259.9
825.399	18277.4
826.562	18290.5
827.725	18301.9
828.889	18309.9
830.052	18315.3
831.215	18318.3
832.377	18318.9
833.54	18317.4
834.701	18313.4
835.863	18307.3
837.025	18299.8
838.187	18291.4
839.349	18287.2
840.51	18285.1
841.67	18294.9
842.831	18303.7
843.992	18312.8
845.153	18327.1
846.312	18336.4
847.473	18342.1
848.633	18340.3
849.793	18329
850.951	18314.2
852.111	18299.4
853.27	18283.5
854.428	18261.4
855.588	18237.3
856.747	18213.9
857.904	18193.1
859.063	18175.4
860.221	18159.6
861.378	18144.3
862.536	18129.8
863.694	18114.9
864.85	18099.6
866.008	18084.5
867.164	18069.7
868.321	18056.5
869.478	18045.7
870.633	18035.8
871.79	18027.5
872.945	18019.6
874.101	18014.5
875.256	18010
876.412	18005.1
877.566	17998.4
878.722	17984.4
879.876	17967.6
881.031	17947.1
882.185	17923.4
883.34	17896.1
884.493	17866.5
885.647	17859.8
886.8	17864.8
887.954	17863.4
889.107	17868.6
890.261	17866.7
891.413	17872.6
892.565	17872.7
893.718	17865.8
894.87	17853.3
896.023	17833.9
897.174	17817.3
898.326	17802.3
899.478	17789.1
900.629	17790.8
901.779	17801.1
902.931	17816.7
904.081	17840.6
905.231	17858.2
906.383	17877.3
907.532	17880.3
908.682	17885.6
909.831	17886.9
910.982	17878.2
912.131	17876.1
913.28	17876.5
914.429	17878.9
915.578	17884.3
916.727	17902.5
917.875	17918.8
919.023	17932.1
920.171	17942.6
921.32	17943.2
922.467	17916.5
923.614	17893.3
924.761	17873.1
925.908	17871.9
927.055	17892.4
928.203	17907.7
929.349	17917.1
930.496	17922
931.642	17919.3
932.787	17903.8
933.933	17886.3
935.079	17873.3
936.224	17867.3
937.369	17863.1
938.514	17858
939.659	17853.7
940.804	17849.1
941.948	17843.9
943.092	17834.1
944.236	17825.3
945.38	17819.2
946.524	17818.8
947.667	17838.2
948.811	17835.3
949.954	17831.9
951.097	17810.1
952.24	17778.4
953.383	17740.5
954.525	17709.6
955.667	17690.6
956.81	17684
957.952	17696.8
959.093	17711.4
960.235	17719.6
961.376	17719.9
962.516	17710.2
963.658	17693.5
964.798	17670.5
965.939	17644
967.08	17616.4
968.22	17604
969.359	17605.8
970.499	17609.9
971.639	17613.2
972.779	17616
973.918	17618.7
975.056	17620.6
976.195	17620.2
977.334	17618.7
978.473	17616.7
979.61	17614.3
980.749	17611.5
981.887	17608.7
983.024	17607
984.162	17605.1
985.3	17603.3
986.437	17601.5
987.573	17599.3
988.711	17595.7
989.848	17590.2
990.983	17580.6
992.12	17565.1
993.255	17545.8
994.392	17561.7
995.528	17614.9
996.662	17696.6
997.798	17573.2
998.933	17567.3
1000.07	17562.1
1001.2	17565.7
1002.34	17592.8
1003.47	17615
1004.61	17610.9
1005.74	17611.2
1006.87	17612
1008.01	17612
1009.14	17609.8
1010.27	17605.6
1011.41	17593.8
1012.54	17572.7
1013.67	17549
1014.81	17529.4
1015.94	17519.6
1017.07	17518.2
1018.2	17519.8
1019.33	17522.9
1020.47	17525.6
1021.6	17527.6
1022.73	17527.3
1023.86	17524.1
1024.99	17518.7
1026.12	17509.3
1027.25	17496.9
1028.38	17480.7
1029.51	17461.7
1030.64	17440
1031.77	17415.9
1032.9	17388.8
1034.03	17364.1
1035.16	17357.5
1036.29	17357.9
1037.42	17365.2
1038.55	17379.5
1039.67	17373.5
1040.8	17353.9
1041.93	17309
1043.06	17260.6
1044.19	17242.8
1045.31	17239.1
1046.44	17247.3
1047.57	17241.9
1048.69	17233.7
1049.82	17226.7
1050.95	17223.9
1052.08	17220
1053.2	17216.1
1054.33	17210.8
1055.45	17204.8
1056.58	17197.9
1057.7	17187
1058.83	17172.3
1059.95	17156.4
1061.08	17140.5
1062.2	17131.5
1063.33	17124.9
1064.45	17120.1
1065.58	17121.1
1066.7	17125.1
1067.83	17130.3
1068.95	17135.9
1070.07	17138.7
1071.2	17138.6
1072.32	17137
1073.44	17133.3
1074.56	17129.4
1075.69	17127.2
1076.81	17126
1077.93	17131.2
1079.05	17143.2
1080.17	17157.1
1081.3	17170
1082.42	17176.2
1083.54	17174.3
1084.66	17166.9
1085.78	17154.5
1086.9	17138.7
1088.02	17121.1
1089.14	17104.5
1090.26	17089
1091.38	17076.8
1092.5	17070.7
1093.62	17073.7
1094.74	17092.9
1095.86	17120.8
1096.98	17145
1098.1	17145.8
1099.22	17110.7
1100.34	17070.2
1101.45	17084.1
1102.57	17085.5
1103.69	17079.6
1104.81	17068.6
1105.93	17054.2
1107.04	17035.8
1108.16	17017.7
1109.28	16997.9
1110.4	17002.6
1111.51	17005.9
1112.63	17006.7
1113.75	17005.3
1114.86	17000.9
1115.98	16994.6
1117.09	16988.3
1118.21	16980.3
1119.32	16970.3
1120.44	16957.5
1121.55	16941.9
1122.67	16922.6
1123.78	16898.2
1124.9	16869.7
1126.01	16837.2
1127.13	16800.4
1128.24	16761.1
1129.35	16793.2
1130.47	16806
1131.58	16796.7
1132.7	16779.4
1133.81	16768.4
1134.92	16765.3
1136.03	16754.3
1137.15	16738.3
1138.26	16704.8
1139.37	16655.5
1140.48	16617.4
1141.59	16584.8
1142.71	16560.9
1143.82	16547.4
1144.93	16541.9
1146.04	16545.1
1147.15	16557.9
1148.26	16579.7
1149.37	16566.4
1150.48	16555.8
1151.59	16550.2
1152.7	16543.8
1153.81	16534.1
1154.92	16523.1
1156.03	16510.8
1157.14	16497.6
1158.25	16484.4
1159.36	16471.8
1160.47	16458.8
1161.58	16447
1162.68	16437.9
1163.79	16431.4
1164.9	16427.2
1166.01	16424.9
1167.12	16425.6
1168.22	16428.7
1169.33	16434.1
1170.44	16441.3
1171.55	16443.7
1172.65	16439.2
1173.76	16429.5
1174.87	16407.6
1175.97	16397.4
1177.08	16399.5
1178.18	16422.4
1179.29	16439.8
1180.4	16453
1181.5	16462
1182.61	16465.5
1183.71	16459.2
1184.82	16455.9
1185.92	16451.4
1187.02	16445.8
1188.13	16439.5
1189.23	16432.2
1190.34	16426.3
1191.44	16418.7
1192.54	16420
1193.65	16425.8
1194.75	16427.4
1195.85	16427.9
1196.96	16428.1
1198.06	16428.1
1199.16	16428.9
1200.26	16443.2
1201.37	16455.2
1202.47	16463.1
1203.57	16467.7
1204.67	16455.6
1205.77	16449.5
1206.87	16446.5
1207.97	16442.1
1209.08	16435.7
1210.18	16428.7
1211.28	16421.3
1212.38	16413.9
1213.48	16406.3
1214.58	16397.9
1215.68	16388.8
1216.78	16381.8
1217.88	16376.4
1218.98	16374.3
1220.07	16363.6
1221.17	16337.8
1222.27	16322
1223.37	16317.4
1224.47	16321.2
1225.57	16324.8
1226.66	16334.8
1227.76	16335.8
1228.86	16326.5
1229.96	16301.2
1231.06	16276.9
1232.15	16253.8
1233.25	16230.1
1234.35	16204.7
1235.44	16177.7
1236.54	16148.4
1237.63	16118.7
1238.73	16160
1239.83	16195.5
1240.92	16200.3
1242.02	16192.7
1243.11	16168.9
1244.21	16159.5
1245.3	16153.6
1246.4	16149.2
1247.49	16148.8
1248.59	16169
1249.68	16173.1
1250.78	16178.1
1251.87	16182.3
1252.96	16168.5
1254.06	16134.4
1255.15	16102.5
1256.24	16070.7
1257.34	16034.2
1258.43	16011.1
1259.52	15999.7
1260.62	15998.9
1261.71	16008.1
1262.8	16017.4
1263.89	16022.3
1264.98	16023.6
1266.08	16017.3
1267.17	16016.6
1268.26	16019.1
1269.35	16023.9
1270.44	16030.3
1271.53	16036.2
1272.62	16029.4
1273.71	16022.9
1274.8	16015
1275.89	16016.4
1276.98	16023.2
1278.07	16032.2
1279.16	16041.3
1280.25	16050
1281.34	16060
1282.43	16071.7
1283.52	16072.6
1284.61	16056.5
1285.69	16044.5
1286.78	16038
1287.87	16031.8
1288.96	16026.6
1290.05	16021.7
1291.13	16018.6
1292.22	16018.2
1293.31	16022.4
1294.4	16038
1295.48	16049.5
1296.57	16060.5
1297.66	16075.3
1298.74	16077.9
1299.83	16065.8
1300.92	16043.1
1302	16027.1
1303.09	16021.4
1304.17	16023.1
1305.26	16029.5
1306.34	16035.3
1307.43	16039.1
1308.51	16039.7
1309.6	16026.2
1310.68	16010.9
1311.76	15994.9
1312.85	15982.2
1313.93	15973.7
1315.02	15967.7
1316.1	15962.8
1317.18	15957.8
1318.27	15955.8
1319.35	15959.8
1320.43	15958.7
1321.52	15951.2
1322.6	15932.2
1323.68	15916.3
1324.76	15903
1325.85	15892
1326.93	15883.1
1328.01	15872
1329.09	15860.3
1330.17	15849.4
1331.25	15839
1332.33	15823
1333.41	15823.8
1334.49	15829.4
1335.58	15836.9
1336.65	15845.2
1337.74	15843.5
1338.82	15838.6
1339.89	15828.9
1340.97	15819.5
1342.05	15810.8
1343.13	15804.7
1344.21	15803.1
1345.29	15804.7
1346.37	15808.2
1347.45	15807.8
1348.53	15805
1349.6	15790.8
1350.68	15773.7
1351.76	15759.7
1352.84	15745.2
1353.92	15739.5
1354.99	15741.2
1356.07	15744.3
1357.15	15746.9
1358.22	15748.5
1359.3	15745.1
1360.38	15744.4
1361.45	15746.3
1362.53	15752.2
1363.61	15764.6
1364.68	15772.7
1365.76	15782.8
1366.83	15793.1
1367.91	15793.1
1368.98	15787.7
1370.06	15779.1
1371.13	15769.1
1372.21	15753.4
1373.28	15736.5
1374.35	15721.5
1375.43	15707.6
1376.5	15697.2
1377.58	15688.8
1378.65	15680.4
1379.72	15677.5
1380.8	15686
1381.87	15692.4
1382.94	15697.2
1384.01	15700.5
1385.09	15710
1386.16	15712.8
1387.23	15700.1
1388.3	15676.5
1389.38	15654.9
1390.45	15644.3
1391.52	15638.5
1392.59	15634.3
1393.66	15632.2
1393.92	15630.8
1395	15634.2
1396.07	15640.8
1397.15	15640.8
1398.22	15634.1
1399.3	15617.8
1400.38	15600.9
1401.45	15587.5
1402.53	15589.7
1403.6	15585.1
1404.68	15582.2
1405.75	15580.5
1406.82	15579
1407.9	15576.6
1408.97	15572.7
1410.05	15565.9
1411.12	15556.6
1412.19	15546.6
1413.27	15550.4
1414.34	15579.7
1415.41	15573
1416.49	15577.7
1417.56	15548.1
1418.63	15493.2
1419.7	15457.6
1420.78	15448.2
1421.85	15450.5
1422.92	15456.8
1423.99	15462.9
1425.06	15460.7
1426.14	15460.8
1427.21	15458.4
1428.28	15452.9
1429.35	15445.9
1430.42	15434.9
1431.49	15418.4
1432.56	15402.8
1433.63	15388.8
1434.7	15382.4
1435.77	15377.7
1436.84	15377
1437.91	15378.5
1438.98	15381.6
1440.05	15385.4
1441.12	15388
1442.18	15391.3
1443.25	15394.6
1444.32	15397.6
1445.39	15399.1
1446.46	15391.7
1447.53	15383.4
1448.59	15376.7
1449.66	15370.5
1450.73	15366
1451.8	15362.7
1452.86	15362
1453.93	15362.9
1455	15365.3
1456.06	15367
1457.13	15339.3
1458.2	15299.6
1459.26	15257.6
1460.33	15272.8
1461.39	15289.5
1462.46	15308.3
1463.52	15316.2
1464.59	15312.5
1465.65	15294
1466.72	15283
1467.78	15275.4
1468.85	15270.5
1469.91	15267.2
1470.98	15265.4
1472.04	15265.6
1473.1	15267.4
1474.17	15271.6
1475.23	15264.6
1476.3	15258.4
1477.36	15256.1
1478.42	15257.6
1479.48	15262.7
1480.55	15261.8
1481.61	15254.4
1482.67	15244
1483.73	15232.5
1484.8	15222.8
1485.86	15214.6
1486.92	15212.1
1487.98	15211.2
1489.04	15214
1490.1	15221
1491.17	15231.8
1492.23	15247.2
1493.29	15265.8
1494.35	15222.9
1495.41	15205
1496.47	15183.6
1497.53	15165.4
1498.59	15139.8
1499.65	15150.4
1500.71	15172.5
1501.77	15170.6
1502.83	15136.9
1503.88	15091
1504.94	15037.1
1506	15018.3
1507.06	15019
1508.12	15015.1
1509.18	15018.1
1510.23	15030.4
1511.29	15046.8
1512.35	15057.7
1513.41	15068.9
1514.47	15070
1515.52	15060
1516.58	15038.1
1517.64	15005.5
1518.69	14982.4
1519.75	14971
1520.81	14969.8
1521.86	14979.4
1522.92	14975.1
1523.97	14959.8
1525.03	14930
1526.08	14897.5
1527.14	14880.4
1528.2	14863.4
1529.25	14863.3
1530.31	14880
1531.36	14892.9
1532.42	14900.4
1533.47	14905.4
1534.52	14909.4
1535.58	14911.6
1536.63	14912.6
1537.69	14912.3
1538.74	14911.3
1539.79	14909.3
1540.84	14907.2
1541.9	14903.2
1542.95	14890.4
1544	14870
1545.06	14841.6
1546.11	14826.7
1547.16	14814.6
1548.21	14805.7
1549.27	14799.8
1550.32	14797.1
1551.37	14797.5
1552.42	14800.4
1553.47	14805.9
1554.52	14813.3
1555.57	14820.8
1556.62	14827.9
1557.67	14832.7
1558.72	14823.4
1559.77	14810.8
1560.82	14809.9
1561.87	14821.9
1562.92	14834
1563.97	14843.8
1565.02	14850.9
1566.07	14857.4
1567.12	14854.8
1568.17	14838
1569.22	14800
1570.27	14769.8
1571.32	14750.8
1572.36	14738.7
1573.41	14731.4
1574.46	14737.5
1575.51	14754.3
1576.56	14776.4
1577.6	14795.6
1578.65	14811.2
1579.7	14796.4
1580.74	14772.7
1581.79	14760.6
1582.84	14750.9
1583.88	14745
1584.93	14742.1
1585.98	14741.3
1587.02	14738.9
1588.07	14733
1589.11	14722.3
1590.16	14707.7
1591.2	14688.8
1592.25	14667.1
1593.29	14655.6
1594.34	14650.4
1595.38	14648.3
1596.43	14647.2
1597.47	14646.3
1598.52	14639.3
1599.56	14631
1600.6	14617.6
1601.65	14602
1602.69	14582.9
1603.73	14561.4
1604.78	14538.1
1605.82	14515.7
1606.86	14511.5
1607.91	14505.8
1608.95	14498.5
1609.99	14492.6
1611.03	14479.9
1612.08	14467.3
1613.12	14462.3
1614.16	14463.9
1615.2	14465
1616.24	14461.8
1617.28	14454.7
1618.32	14443.1
1619.36	14429.6
1620.41	14412.7
1621.45	14393.1
1622.49	14371.5
1623.53	14348.4
1624.57	14332.5
1625.61	14323.8
1626.65	14319.6
1627.69	14319.8
1628.73	14324.6
1629.76	14333.3
1630.8	14323.3
1631.84	14318.5
1632.88	14293.4
1633.92	14241.1
1634.96	14232.2
1636	14225.2
1637.03	14247
1638.07	14256.7
1639.11	14259.6
1640.15	14249.7
1641.19	14216.4
1642.22	14192
1643.26	14180.9
1644.3	14164.8
1645.33	14163.5
1646.37	14161
1647.41	14163
1648.44	14164.6
1649.48	14165.2
1650.52	14161.3
1651.55	14155.9
1652.59	14147.8
1653.62	14136.8
1654.66	14123
1655.69	14105.2
1656.73	14086.3
1657.76	14078.1
1658.8	14094.2
1659.83	14114
1660.87	14131
1661.9	14142.3
1662.93	14104.2
1663.97	14097.3
1665	14089.4
1666.04	14082.9
1667.07	14083
1668.1	14084.6
1669.14	14072.6
1670.17	14057.8
1671.2	14035.7
1672.23	14012.1
1673.27	13997.7
1674.3	13992.1
1675.33	13985.8
1676.36	13987.9
1677.39	13991
1678.43	13995.6
1679.46	13992.3
1680.49	13986.2
1681.52	13976.7
1682.55	13962.6
1683.58	13944.7
1684.61	13923.8
1685.64	13898.8
1686.67	13892
1687.7	13893.3
1688.73	13899.6
1689.76	13906.7
1690.79	13903
1691.82	13898.2
1692.85	13893.6
1693.88	13888.1
1694.91	13996.8
1695.94	13894
1696.97	13881.7
1698	13868.1
1699.02	13849.2
1700.05	13853.5
1701.08	13835.7
1702.11	13818.3
1703.14	13802.1
1704.16	13786.7
1705.19	13772.8
1706.22	13768
1707.25	13779.5
1708.27	13794.8
1709.3	13794.3
1710.33	13789.9
1711.35	13780.7
1712.38	13764.2
1713.41	13747.3
1714.43	13732.2
1715.46	13719.1
1716.48	13707.9
1717.51	13699
1718.53	13693
1719.56	13688.8
1720.58	13686
1721.61	13681.7
1722.63	13664.2
1723.66	13647.8
1724.68	13633.4
1725.71	13614.7
1726.73	13608.9
1727.75	13620.9
1728.78	13629.2
1729.8	13643.3
1730.83	13650.6
1731.85	13645
1732.87	13611.3
1733.89	13577.1
1734.92	13553.7
1735.94	13526.7
1736.96	13507.8
1737.98	13491.6
1739.01	13481.2
1740.03	13481.4
1741.05	13485
1742.07	13466.3
1743.09	13458.5
1744.12	13460.5
1745.14	13467.4
1746.16	13472
1747.18	13473.7
1748.2	13472.2
1749.22	13467.2
1750.24	13458.5
1751.26	13445.4
1752.28	13426.1
1753.3	13409
1754.32	13403.1
1755.34	13401.2
1756.36	13401
1757.38	13401
1758.4	13396
1759.42	13396.3
1760.44	13394.5
1761.45	13394.1
1762.47	13387.7
1763.49	13372.1
1764.51	13351
1765.53	13331.9
1766.55	13316.4
1767.56	13300
1768.58	13283.4
1769.6	13266.5
1770.61	13249.9
1771.63	13232.3
1772.65	13217.1
1773.67	13206.1
1774.68	13228.9
1775.7	13254.4
1776.72	13257.6
1777.73	13254.3
1778.75	13245.1
1779.76	13238
1780.78	13230.1
1781.79	13218.9
1782.81	13207.2
1783.83	13194.3
1784.84	13180.7
1785.85	13166.6
1786.87	13154.4
1787.88	13150.5
1788.9	13154
1789.91	13153.1
1790.93	13177.9
1791.94	13088.8
1792.95	13038.4
1793.97	13026.5
1794.98	13052.3
1796	13074.6
1797.01	13074.3
1798.02	13077.1
1799.03	13071.3
1800.05	13060
1801.06	13046.2
1802.07	13031.1
1803.08	13014.9
1804.1	12997.8
1805.11	12979.8
1806.12	12961.1
1807.13	12941.5
1808.14	12921.3
1809.15	12900.3
1810.17	12878.2
1811.18	12861.3
1812.19	12863.6
1813.2	12866.4
1814.21	12864.8
1815.22	12857.9
1816.23	12850.9
1817.24	12842.2
1818.25	12832.4
1819.26	12821.7
1820.27	12811
1821.28	12802.4
1822.29	12795.8
1823.3	12798.6
1824.3	12790.5
1825.31	12775
1826.32	12745.4
1827.33	12713.8
1828.34	12687.6
1829.35	12676.3
1830.35	12679.9
1831.36	12713
1832.37	12721.7
1833.38	12726.8
1834.38	12693.1
1835.39	12677.1
1836.4	12665.5
1837.41	12659.3
1838.41	12658.5
1839.42	12662.3
1840.43	12673.1
1841.43	12672.8
1842.44	12660
1843.44	12636.2
1844.45	12601.3
1845.46	12579.5
1846.46	12567.3
1847.47	12561.6
1848.47	12557.4
1849.48	12550.6
1850.48	12546
1851.49	12520.2
1852.49	12493.4
1853.49	12472.7
1854.5	12459.4
1855.5	12454.3
1856.51	12466.2
1857.51	12471
1858.51	12475.1
1859.52	12476.5
1860.52	12485.5
1861.52	12472.5
1862.53	12453.3
1863.53	12430.2
1864.53	12403.9
1865.54	12382.4
1866.54	12372.8
1867.54	12374.9
1868.54	12389.5
1869.54	12398.3
1870.55	12395.4
1871.55	12385.4
1872.55	12367.9
1873.55	12348.8
1874.55	12330.5
1875.55	12314.3
1876.55	12301
1877.55	12291.2
1878.55	12284.4
1879.55	12282.5
1880.56	12282.2
1881.55	12279.4
1882.56	12263
1883.55	12243.2
1884.55	12216.7
1885.55	12196.4
1886.55	12181.8
1887.55	12182.5
1888.55	12188.8
1889.55	12197
1890.55	12188.3
1891.55	12179.2
1892.55	12168.6
1893.54	12155.6
1894.54	12140.9
1895.54	12121.7
1896.54	12099.9
1897.54	12078.7
1898.53	12059.3
1899.53	12050.4
1900.53	12045.3
1901.52	12046.3
1902.52	12050
1903.52	12052
1904.51	12051.1
1905.51	12046.7
1906.51	12039.7
1907.5	12030.2
1908.5	12018.5
1909.49	12004.7
1910.49	11989.7
1911.49	11972.4
1912.48	11954.5
1913.48	11945.6
1914.47	11947.3
1915.46	11943.5
1916.46	11936.1
1917.45	11923.2
1918.45	11907.1
1919.44	11890.6
1920.44	11876.5
1921.43	11860.7
1922.43	11841.6
1923.42	11834.4
1924.41	11841.6
1925.41	11842.8
1926.4	11842.8
1927.39	11841.5
1928.38	11838.4
1929.38	11833.8
1930.37	11827.8
1931.36	11820.5
1932.35	11811.5
1933.35	11801.1
1934.34	11789.1
1935.33	11775.3
1936.32	11759
1937.31	11740.9
1938.3	11721.7
1939.29	11703.4
1940.29	11686.6
1941.28	11677.8
1942.27	11662.6
1943.26	11647.6
1944.25	11631.9
1945.24	11618.7
1946.23	11607.6
1947.22	11599.8
1948.21	11594.6
1949.2	11592.3
1950.19	11592.7
1951.18	11596.2
1952.17	11596.9
1953.16	11592.1
1954.14	11585.4
1955.13	11573.5
1956.12	11557.4
1957.11	11537.5
1958.1	11514.1
1959.09	11487.8
1960.07	11459.1
1961.06	11440.3
1962.05	11428.4
1963.04	11428.2
1964.02	11436.1
1965.01	11442.8
1966	11448.4
1966.99	11446.8
1967.97	11448.5
1968.96	11423.6
1969.95	11397.9
1970.93	11378.4
1971.92	11365.8
1972.9	11360.8
1973.89	11360.5
1974.88	11352.5
1975.86	11328.7
1976.85	11316.7
1977.83	11307
1978.82	11300
1979.8	11298.8
1980.79	11290.3
1981.77	11286.1
1982.76	11270.6
1983.74	11253.7
1984.72	11243.2
1985.71	11239.1
1986.69	11232.3
1987.67	11224.4
1988.66	11215.4
1989.64	11206
1990.62	11195.6
1991.61	11184.7
1992.59	11181.4
1993.57	11185.8
1994.56	11197.5
1995.54	11200.4
1996.52	11185.3
1997.5	11161
1998.49	11134
1999.47	11117.5
2000.45	11102.8
2001.43	11088.6
2002.41	11078.9
2003.39	11071.2
2004.38	11066.5
2005.36	11063.8
2006.34	11062.1
2007.32	11060.1
2008.3	11052.3
2009.28	11044.8
2010.26	11035.6
2011.24	11024.7
2012.22	11012
2013.2	10998.2
2014.18	10983.5
2015.16	10970.8
2016.14	10957.3
2017.12	10955.2
2018.1	10947
2019.07	10934.4
2020.05	10916.4
2021.03	10904.4
2022.01	10896.8
2022.99	10895.6
2023.97	10896
2024.95	10890.5
2025.92	10885.8
2026.9	10881.9
2027.88	10879.4
2028.86	10881.3
2029.83	10859.8
2030.81	10838
2031.79	10818.1
2032.76	10800.3
2033.74	10786.9
2034.72	10776.5
2035.69	10768.6
2036.67	10763
2037.65	10760.8
2038.62	10758.8
2039.6	10728.5
2040.57	10709.2
2041.55	10694.4
2042.52	10682.9
2043.5	10673.7
2044.47	10666.3
2045.45	10659.7
2046.42	10650.4
2047.4	10642.7
2048.37	10635.4
2049.35	10628.5
2050.32	10621.7
2051.29	10615.4
2052.27	10607.9
2053.24	10598.4
2054.21	10585.5
2055.19	10571.4
2056.16	10553.9
2057.13	10540.7
2058.11	10536.5
2059.08	10524.8
2060.05	10517.2
2061.02	10501.9
2062	10489.9
2062.97	10479.3
2063.94	10469.4
2064.91	10460.1
2065.89	10450.9
2066.86	10442.4
2067.83	10448
2068.8	10449.3
2069.77	10444.7
2070.74	10425.4
2071.71	10384.7
2072.68	10337.4
2073.65	10305.5
2074.62	10367.7
2075.59	10363.3
2076.56	10358.8
2077.53	10356.2
2078.5	10354.6
2079.47	10354.3
2080.44	10343.3
2081.41	10324.7
2082.38	10302.2
2083.35	10277.3
2084.32	10264.5
2085.29	10250.9
2086.26	10250
2087.23	10250.8
2088.19	10234.5
2089.16	10220.8
2090.13	10199.2
2091.1	10177.4
2092.07	10162.4
2093.03	10143.3
2094	10134.1
2094.97	10133.2
2095.94	10138.5
2096.9	10144.1
2097.87	10139.9
2098.84	10134.8
2099.8	10126.8
2100.77	10119.2
2101.74	10110.7
2102.7	10099.9
2103.67	10088.8
2104.63	10076.3
2105.6	10063.2
2106.56	10049.9
2107.53	10037.7
2108.49	10026.5
2109.46	10024.8
2110.42	10024.1
2111.39	10043.4
2112.35	10047.8
2113.32	10056
2114.28	9996.72
2115.25	9976.05
2116.21	9956.73
2117.17	9936.05
2118.14	9917.79
2119.1	9908.65
2120.07	9886.04
2121.03	9878.42
2121.99	9876.27
2122.96	9879.38
2123.92	9884.77
2124.88	9885.36
2125.84	9868.75
2126.81	9845.17
2127.77	9825.57
2128.73	9810.23
2129.69	9798.7
2130.65	9791.79
2131.62	9787.99
2132.58	9783.62
2133.54	9775.36
2134.5	9767.04
2135.46	9759.15
2136.42	9750.93
2137.38	9742.44
2138.34	9733.57
2139.3	9725.99
2140.26	9714.89
2141.22	9703.97
2142.18	9692.6
2143.14	9681.08
2144.1	9669.55
2145.06	9663.07
2146.02	9665.27
2146.98	9665.37
2147.94	9665.14
2148.9	9662.05
2149.86	9655.57
2150.82	9646.6
2151.78	9635.4
2152.74	9620.49
2153.69	9603.37
2154.65	9587.77
2155.61	9571.19
2156.57	9566.32
2157.53	9564.75
2158.48	9565.2
2159.44	9567.45
2160.4	9567.07
2161.36	9564.49
2162.31	9544.72
2163.27	9519.48
2164.23	9494.16
2165.18	9473.72
2166.14	9457.93
2167.1	9446.85
2168.05	9430.01
2169.01	9422.22
2169.96	9422.43
2170.92	9441.22
2171.88	9427.91
2172.83	9398.05
2173.79	9330.67
2174.74	9301.67
2175.7	9281.56
2176.65	9267.76
2177.6	9253.94
2178.56	9240.69
2179.51	9229.1
2180.47	9218.51
2181.42	9208.34
2182.38	9198.53
2183.33	9189.11
2184.28	9179.78
2185.24	9170.99
2186.19	9162.75
2187.14	9155.33
2188.1	9148.23
2189.05	9141.82
2190	9135.99
2190.96	9130.34
2191.91	9124.86
2192.86	9118.57
2193.81	9110.68
2194.76	9100.82
2195.72	9088.91
2196.67	9074.77
2197.62	9058.18
2198.57	9038.68
2199.52	9015.2
2200.47	8994.52
2201.43	8979.71
2202.38	8977.9
2203.33	8979.85
2204.28	8987.03
2205.23	9015.64
2206.18	9021.01
2207.13	9002.41
2208.08	8982.53
2209.03	8964.36
2209.98	8951.78
2210.93	8935.33
2211.88	8921.94
2212.83	8908.96
2213.78	8898.58
2214.73	8891.82
2215.67	8891.41
2216.62	8889.97
2217.57	8874.45
2218.52	8859.69
2219.47	8847.59
2220.42	8837.24
2221.37	8828.89
2222.31	8822.17
2223.26	8822.51
2224.21	8815.92
2225.16	8810.72
2226.1	8807.33
2227.05	8803.63
2228	8802.51
2228.94	8800.86
2229.89	8796.5
2230.84	8790.4
2231.78	8782.21
2232.73	8763.19
2233.68	8740.92
2234.62	8731.31
2235.57	8732.27
2236.51	8733.29
2237.46	8734.6
2238.41	8735.42
2239.35	8732.96
2240.3	8728.97
2241.24	8723.71
2242.19	8717.13
2243.13	8709.25
2244.07	8699.8
2245.02	8690.83
2245.96	8683.09
2246.91	8678.13
2247.85	8673.59
2248.8	8682.56
2249.74	8686.93
2250.68	8685.53
2251.63	8691.3
2252.57	8691.87
2253.51	8685.27
2254.46	8676.49
2255.4	8662.71
2256.34	8650.32
2257.28	8643.62
2258.23	8636.21
2259.17	8639.1
2260.11	8642.29
2261.05	8641.19
2262	8637.87
2262.94	8613.96
2263.88	8601.64
2264.82	8590.08
2265.76	8584.13
2266.7	8580.71
2267.64	8579.39
2268.58	8575.75
2269.53	8570.56
2270.47	8564.71
2271.41	8553.48
2272.35	8550.26
2273.29	8551.38
2274.23	8558.83
2275.17	8567.55
2276.11	8576.69
2277.05	8587.23
2277.99	8588.97
2278.93	8585.31
2279.86	8577.15
2280.8	8566.05
2281.74	8554.6
2282.68	8546.43
2283.62	8545.55
2284.56	8547.49
2285.5	8549.09
2286.44	8549.11
2287.37	8549
2288.31	8544.95
2289.25	8539.57
2290.19	8533.08
2291.12	8525.27
2292.06	8516.57
2293	8506.78
2293.94	8499.2
2294.87	8493.02
2295.81	8486.44
2296.75	8478.99
2297.68	8471.98
2298.62	8464.64
2299.55	8460.35
2300.49	8458.14
2301.43	8457.12
2302.36	8456.96
2303.3	8455.29
2304.23	8453.93
2305.17	8450.55
2306.1	8437
2307.04	8419.4
2307.98	8401.51
2308.91	8387.54
2309.84	8377.06
2310.78	8368.1
2311.71	8359.79
2312.65	8351.46
2313.58	8340.2
2314.52	8336.17
2315.45	8328.65
2316.38	8319.07
2317.32	8309.5
2317.72	8305.41
2318.66	8298.09
2319.6	8291.2
2320.54	8284.44
2321.48	8279.14
2322.41	8275.6
2323.35	8274.7
2324.29	8276.38
2325.23	8279.83
2326.16	8284.17
2327.1	8278.43
2328.04	8268.74
2328.97	8255.62
2329.91	8238.87
2330.85	8219.06
2331.78	8195.25
2332.72	8175.23
2333.66	8162.3
2334.59	8153.23
2335.53	8150.4
2336.46	8144.55
2337.4	8142
2338.33	8140.33
2339.27	8141.64
2340.2	8143.88
2341.14	8147.28
2342.07	8144.18
2343.01	8127.13
2343.94	8115.86
2344.88	8105.98
2345.81	8098.29
2346.75	8087.97
2347.68	8078.6
2348.61	8070.25
2349.55	8063.25
2350.48	8057.54
2351.41	8055
2352.35	8054.06
2353.28	8054.6
2354.21	8056.81
2355.15	8057.48
2356.08	8048.84
2357.01	8038.48
2357.94	8025.88
2358.88	8020
2359.81	8018.9
2360.74	8024.18
2361.67	8023.12
2362.6	8021.31
2363.54	8018.22
2364.47	8014.15
2365.4	8010.24
2366.33	8013.07
2367.26	8009.57
2368.19	8005.24
2369.12	7999.84
2370.05	7993.53
2370.98	7986.31
2371.91	7978.06
2372.84	7969.07
2373.77	7958.21
2374.7	7946.81
2375.63	7940.6
2376.56	7938.32
2377.49	7940.37
2378.42	7937.99
2379.35	7935.06
2380.28	7932.89
2381.21	7929.41
2382.14	7925.78
2383.07	7920.39
2384	7913.2
2384.92	7902.73
2385.85	7887.65
2386.78	7870.73
2387.71	7851.35
2388.64	7831.48
2389.56	7824.01
2390.49	7820.41
2391.42	7824.96
2392.35	7832.18
2393.27	7838.04
2394.2	7837.3
2395.13	7830.14
2396.05	7818.16
2396.98	7809.27
2397.91	7801.86
2398.83	7795.83
2399.76	7790.41
2400.69	7785.82
2401.61	7783.3
2402.54	7781.78
2403.46	7780.03
2404.39	7777.06
2405.31	7772.96
2406.24	7767.59
2407.17	7761.03
2408.09	7753.36
2409.01	7744.64
2409.94	7734.47
2410.86	7724.42
2411.79	7718.46
2412.71	7730.05
2413.64	7731.78
2414.56	7735.48
2415.49	7724.64
2416.41	7711.38
2417.33	7692.79
2418.26	7671.81
2419.18	7656.38
2420.1	7654.68
2421.03	7651.77
2421.95	7644.31
2422.87	7636.09
2423.79	7628.33
2424.72	7620.31
2425.64	7611.75
2426.56	7603.45
2427.48	7595.14
2428.41	7587.22
2429.33	7579.56
2430.25	7572.34
2431.17	7565.61
2432.09	7560.43
2433.01	7556.34
2433.93	7546.9
2434.86	7534.52
2435.78	7522.83
2436.7	7513.55
2437.62	7504.09
2438.54	7497.79
2439.46	7494.84
2440.38	7495.95
2441.3	7496.92
2442.22	7496.66
2443.14	7492.92
2444.06	7485.06
2444.98	7474.75
2445.9	7461.95
2446.82	7445.55
2447.73	7426.5
2448.65	7404.63
2449.57	7381.95
2450.49	7367.52
2451.41	7364.09
2452.33	7379.26
2453.25	7387.01
2454.17	7392.58
2455.08	7392.45
2456	7386.73
2456.92	7374.17
2457.84	7361.32
2458.75	7349.41
2459.67	7337.53
2460.59	7324.3
2461.51	7311.52
2462.42	7299.28
2463.34	7287.52
2464.26	7276.92
2465.17	7267.66
2466.09	7260.89
2467	7261.98
2467.92	7269.94
2468.84	7276.74
2469.75	7285.64
2470.67	7292.55
2471.58	7287.73
2472.5	7271.12
2473.42	7256.72
2474.33	7245.92
2475.25	7234.5
2476.16	7224.65
2477.08	7216.59
2477.99	7209.67
2478.9	7203.39
2479.82	7197.53
2480.73	7192.09
2481.65	7184.53
2482.56	7179.98
2483.47	7176.49
2484.39	7172.99
2485.3	7169.92
2486.22	7163.95
2487.13	7153.98
2488.04	7139.82
2488.96	7130.62
2489.87	7122.41
2490.78	7115.11
2491.69	7109.32
2492.61	7105.35
2493.52	7102.95
2494.43	7102.45
2495.34	7103.97
2496.25	7109.11
2497.17	7116.48
2498.08	7124.4
2498.99	7132.15
2499.9	7123.54
2500.81	7110.75
2501.72	7092.49
2502.63	7063.3
2503.55	7043.29
2504.46	7034.41
2505.37	7037.75
2506.28	7045.15
2507.19	7048.03
2508.1	7050.33
2509.01	7051.87
2509.92	7052.77
2510.83	7045.94
2511.74	7047.61
2512.65	7049.26
2513.56	7048.36
2514.47	7044.85
2515.37	7039.28
2516.28	7031.72
2517.19	7022.72
2518.1	7011.13
2519.01	6997.85
2519.92	6982.64
2520.83	6967.89
2521.73	6958.27
2522.64	6954.12
2523.55	6958.16
2524.46	6957.13
2525.37	6956.47
2526.27	6958.02
2527.18	6959.55
2528.09	6958.2
2529	6945.01
2529.9	6928.49
2530.81	6918.77
2531.72	6911.26
2532.62	6906.15
2533.53	6904.55
2534.44	6907.8
2535.34	6914.26
2536.25	6923.44
2537.15	6933.46
2538.06	6925.32
2538.96	6915.01
2539.87	6899.41
2540.78	6874.92
2541.68	6852.91
2542.59	6839.51
2543.49	6834.22
2544.4	6836.7
2545.3	6840.02
2546.21	6847.7
2547.11	6853.1
2548.01	6855.37
2548.92	6851.36
2549.82	6844.61
2550.73	6835.06
2551.63	6822.73
2552.53	6808.36
2553.44	6789.59
2554.34	6778.11
2555.24	6767.76
2556.15	6762.65
2557.05	6767.19
2557.95	6770.98
2558.86	6772.71
2559.76	6770.94
2560.66	6747.14
2561.56	6737.09
2562.46	6726.82
2563.37	6717.24
2564.27	6707.83
2565.17	6700.08
2566.07	6698.18
2566.97	6689.41
2567.88	6677.53
2568.78	6664.86
2569.68	6657.05
2570.58	6650.38
2571.48	6641.99
2572.38	6631.51
2573.28	6620.29
2574.18	6609.13
2575.08	6597.98
2575.98	6586.71
2576.88	6576.38
2577.78	6568.23
2578.68	6561.01
2579.58	6554.44
2580.48	6546.44
2581.38	6537.67
2582.28	6526
2583.18	6524.83
2584.08	6520.51
2584.98	6522.05
2585.88	6516.92
2586.77	6511.09
2587.67	6504.51
2588.57	6496.5
2589.47	6486.09
2590.37	6473.86
2591.27	6462.3
2592.16	6452.16
2593.06	6445.53
2593.96	6440.68
2594.86	6438.01
2595.75	6437.59
2596.65	6439.49
2597.55	6443.67
2598.45	6450.23
2599.34	6455.51
2600.24	6444.82
2601.13	6431.33
2602.03	6427.06
2602.93	6427.47
2603.82	6422.35
2604.72	6412.78
2605.62	6401.31
2606.51	6386.71
2607.41	6376.26
2608.3	6368.93
2609.2	6447.51
2610.09	6346.39
2610.99	6325.86
2611.88	6317.82
2612.78	6289.17
2613.67	6401.29
2614.57	6363.08
2615.46	6346.3
2616.36	6328.1
2617.25	6312.1
2618.14	6300.39
2619.04	6292.88
2619.93	6292.93
2620.83	6296.42
2621.72	6302.9
2622.61	6310.09
2623.5	6307.49
2624.4	6302.51
2625.29	6294.58
2626.18	6283.31
2627.08	6272.4
2627.97	6263.62
2628.86	6261.45
2629.75	6259.11
2630.65	6255.77
2631.54	6251.53
2632.43	6242.91
2633.32	6236.27
2634.21	6227.22
2635.11	6212.55
2636	6187.13
2636.89	6154.38
2637.78	6129.99
2638.67	6108.8
2639.56	6094.31
2640.45	6108.02
2641.34	6110.53
2642.23	6110.57
2643.12	6108.29
2644.01	6103.51
2644.9	6096.49
2645.79	6089.96
2646.68	6082.37
2647.57	6074.19
2648.46	6065.22
2649.35	6057.86
2650.24	6050.15
2651.13	6042.88
2652.02	6033.16
2652.91	6024.88
2653.8	6016.94
2654.69	6019.69
2655.58	6023.21
2656.46	6016.82
2657.35	6004.3
2658.24	5995.28
2659.13	5985.78
2660.02	5974
2660.9	5960.42
2661.79	5954.29
2662.68	5956.24
2663.57	5963.59
2664.45	5965.98
2665.34	5966.42
2666.23	5965.27
2667.11	5963.31
2668	5960.33
2668.89	5957.03
2669.77	5953.4
2670.66	5949.54
2671.55	5944.78
2672.43	5939.46
2673.32	5931.03
2674.21	5905.22
2675.09	5883.85
2675.98	5868.12
2676.86	5865.5
2677.75	5864.5
2678.63	5861.06
2679.52	5866.06
2680.4	5866.48
2681.29	5860.34
2682.17	5841.38
2683.06	5820.7
2683.94	5793.55
2684.82	5775.05
2685.71	5766.36
2686.59	5765.41
2687.48	5770.88
2688.36	5779.32
2689.24	5782.54
2690.13	5780.54
2691.01	5774.36
2691.89	5765.99
2692.78	5755.39
2693.66	5746.86
2694.54	5753.09
2695.43	5764.63
2696.31	5806.72
2697.19	5789.05
2698.07	5764.83
2698.96	5736.82
2699.84	5718.34
2700.72	5701.06
2701.6	5687.93
2702.48	5678.06
2703.36	5672.73
2704.25	5670.73
2705.13	5673.23
2706.01	5675.74
2706.89	5665.58
2707.77	5649.71
2708.65	5639.15
2709.53	5632.16
2710.41	5627.77
2711.29	5626.82
2712.17	5628.04
2713.05	5629.86
2713.93	5631.76
2714.81	5632.15
2715.69	5631.49
2716.57	5629.59
2717.45	5610.58
2718.33	5593.25
2719.21	5575.59
2720.09	5576.69
2720.97	5580.46
2721.85	5583.7
2722.73	5582.13
2723.61	5580.76
2724.48	5578.08
2725.36	5574.01
2726.24	5568.52
2727.12	5561.79
2728	5553.21
2728.88	5545.17
2729.75	5539.13
2730.63	5538.42
2731.51	5534.58
2732.39	5528.66
2733.26	5520.32
2734.14	5506.63
2735.02	5484.79
2735.89	5477.2
2736.77	5474.59
2737.65	5475.09
2738.52	5476.38
2739.4	5478.7
2740.28	5481.48
2741.15	5484.39
2742.03	5487.14
2742.9	5488.18
2743.78	5487.25
2744.65	5484.41
2745.53	5478.43
2746.41	5465.48
2747.28	5448.91
2748.16	5434.12
2749.03	5425.06
2749.91	5414.19
2750.78	5412.48
2751.66	5422.1
2752.53	5427.5
2753.4	5425.03
2754.28	5417.8
2755.15	5409.79
2756.02	5405.7
2756.9	5408.07
2757.77	5401.41
2758.65	5392.26
2759.52	5377.1
2760.39	5365.3
2761.27	5356.12
2762.14	5350.87
2763.01	5357.2
2763.88	5354.92
2764.76	5352.38
2765.63	5349.58
2766.5	5346.77
2767.37	5340.88
2768.25	5334.04
2769.12	5329.49
2769.99	5324.66
2770.86	5321.75
2771.73	5317.97
2772.61	5314.49
2773.48	5298.1
2774.35	5283.97
2775.22	5272.24
2776.09	5268.62
2776.96	5276.7
2777.83	5299.29
2778.7	5291.12
2779.57	5279.19
2780.44	5264.28
2781.31	5246.13
2782.18	5224.73
2783.05	5208.27
2783.92	5196.98
2784.79	5190.61
2785.66	5189.08
2786.53	5196.68
2787.4	5202.36
2788.27	5210.73
2789.14	5207.28
2790.01	5196.91
2790.88	5183.84
2791.75	5171.54
2792.62	5159.89
2793.48	5150.09
2794.35	5141.3
2795.22	5146.21
2796.09	5152.31
2796.96	5155.62
2797.82	5153.41
2798.69	5148.79
2799.56	5143.78
2800.43	5138.12
2801.29	5131.84
2802.16	5125
2803.03	5117.68
2803.9	5110.2
2804.76	5105.47
2805.63	5101.15
2806.5	5093.42
2807.36	5085.49
2808.23	5078.49
2809.09	5067.78
2809.96	5062.72
2810.83	5062.42
2811.69	5066.17
2812.56	5075.23
2813.42	5059.93
2814.29	5050.2
2815.15	5050.15
2816.02	5050.09
2816.88	5049.51
2817.75	5048.18
2818.61	5031.54
2819.48	5024.34
2820.34	5020.38
2821.21	5016.82
2822.07	5013.98
2822.94	5010.35
2823.8	5006.31
2824.66	5003
2825.53	5000.87
2826.39	5013.88
2827.26	5016.08
2828.12	5007.29
2828.98	4987.81
2829.85	4956.73
2830.71	4943.31
2831.57	4942.37
2832.43	4944.38
2833.3	4942.55
2834.16	4941.34
2835.02	4939.63
2835.88	4936.86
2836.75	4933.65
2837.61	4929.94
2838.47	4925.76
2839.33	4921.17
2840.19	4916.4
2841.06	4911.23
2841.92	4905.79
2842.78	4905.31
2843.64	4906.82
2844.5	4906.6
2845.36	4906.2
2846.22	4901.57
2847.08	4896.62
2847.94	4890.39
2848.81	4882.94
2849.67	4874.28
2850.53	4864.64
2851.39	4855.03
2852.25	4847
2853.11	4845.75
2853.97	4847.33
2854.82	4848.93
2855.68	4850.67
2856.54	4850.16
2857.4	4848.87
2858.26	4848.64
2859.12	4848.46
2859.98	4847.84
2860.84	4846.3
2861.7	4842.64
2862.56	4836.91
2863.41	4829.55
2864.27	4820.4
2865.13	4810.7
2865.99	4801.47
2866.85	4798.38
2867.7	4798.92
2868.56	4798.43
2869.42	4800.58
2870.28	4799.93
2871.13	4796.84
2871.99	4791.8
2872.85	4785.83
2873.7	4777.88
2874.56	4768.85
2875.42	4759.47
2876.27	4751.29
2877.13	4747.18
2877.99	4744.53
2878.84	4742.66
2879.7	4741.64
2880.56	4739.19
2881.41	4738.16
2882.27	4723.23
2883.12	4709.23
2883.98	4690.36
2884.83	4681.3
2885.69	4681.78
2886.54	4681.56
2887.4	4680.17
2888.25	4677.31
2889.11	4674.01
2889.96	4669.19
2890.82	4663.4
2891.67	4656.72
2892.52	4649.23
2893.38	4641.55
2894.23	4636.49
2895.09	4627.9
2895.94	4629.99
2896.79	4631.64
2897.65	4632.4
2898.5	4632.41
2899.35	4631.55
2900.21	4627.22
2901.06	4622.2
2901.91	4615.07
2902.76	4606.56
2903.62	4596.23
2904.47	4587.61
2905.32	4590.61
2906.17	4591.95
2907.03	4584.87
2907.88	4576.45
2908.73	4567.07
2909.58	4563.83
2910.43	4560.14
2911.28	4557.42
2912.14	4555.95
2912.99	4558.58
2913.84	4552.92
2914.69	4541.22
2915.54	4522.79
2916.39	4498.75
2917.24	4457.32
2918.09	4467.03
2918.94	4483.3
2919.79	4502.46
2920.64	4490.81
2921.49	4487.91
2922.34	4484.86
2923.19	4481.07
2924.04	4476.95
2924.89	4472.2
2925.74	4464.82
2926.59	4459.61
2927.44	4459.89
2928.29	4459.95
2929.14	4461.62
2929.98	4458.68
2930.83	4454.93
2931.68	4449.47
2932.53	4441.73
2933.38	4431.19
2934.23	4419.52
2935.07	4407.4
2935.92	4399.31
2936.77	4391.79
2937.62	4385.64
2938.47	4380.6
2939.31	4377.12
2940.16	4374.9
2941.01	4373.22
2941.85	4371.15
2942.7	4366.07
2943.55	4359.44
2944.39	4351.14
2945.24	4341.46
2946.09	4330.88
2946.93	4324.19
2947.78	4332.74
2948.63	4340.94
2949.47	4346.09
2950.32	4339.03
2951.16	4329.91
2952.01	4323.19
2952.85	4317.89
2953.7	4314.47
2954.55	4315.04
2955.39	4312.49
2956.24	4310.94
2957.08	4306.03
2957.92	4300.49
2958.77	4293.46
2959.61	4285.68
2960.46	4273.78
2961.3	4265.35
2962.15	4263.48
2962.99	4265.78
2963.83	4272.59
2964.68	4282.9
2965.52	4256.53
2966.37	4248.51
2967.21	4241.95
2968.05	4234.62
2968.9	4227.48
2969.74	4234.45
2970.58	4237.07
2971.42	4233.99
2972.27	4232.61
2973.11	4229.58
2973.95	4227.97
2974.79	4227.74
2975.64	4227.25
2976.48	4226.65
2977.32	4225.97
2978.16	4224.96
2979	4223.15
2979.85	4217.06
2980.69	4211.3
2981.53	4205.22
2982.37	4199.13
2983.21	4193.08
2984.05	4187.18
2984.89	4181.34
2985.73	4175.61
2986.57	4169.87
2987.41	4164.25
2988.25	4158.88
2989.1	4153.96
2989.94	4150.89
2990.77	4149.68
2991.62	4150.66
2992.45	4155.61
2993.29	4160.8
2994.13	4168.96
2994.97	4163.39
2995.81	4154.6
2996.65	4144.25
2997.49	4130.63
2998.33	4124.73
2999.17	4136.09
