200.833	16061.1
202.102	16140.1
203.371	16141.6
204.639	16141.1
205.907	16142.1
207.175	16144.2
208.442	16149.1
209.71	16155.4
210.977	16161.2
212.244	16169.8
213.511	16182
214.777	16197.9
216.042	16225.1
217.309	16259.7
218.575	16351.6
219.84	16290.5
221.106	16292.3
222.371	16328.9
223.635	16376.3
224.9	16414.9
226.165	16454.8
227.429	16493.1
228.694	16531.3
229.956	16562.9
231.22	16585.7
232.484	16604.5
233.747	16620.5
235.011	16639.6
236.272	16670.2
237.535	16707.4
238.798	16750.2
240.06	16798.4
241.321	16839.7
242.583	16857.8
243.845	16867.7
245.105	16878
246.367	16891
247.628	16908.2
248.888	16926.8
250.149	16951.6
251.409	16976.2
252.67	16998.1
253.928	17011.5
255.189	17021.4
256.447	17028
257.707	17027.1
258.966	17023.9
260.224	17016.3
261.483	17009.7
262.742	17005.9
263.999	17010.7
265.257	17015.4
266.514	17026.1
267.772	17044.4
269.028	17076.5
270.286	17124.6
271.543	17171.1
272.799	17209.6
274.056	17245.9
275.311	17264.2
276.568	17282.5
277.823	17292.3
279.079	17310.2
280.333	17327.1
281.589	17361.2
282.843	17389.4
284.099	17411.3
285.352	17427.1
286.607	17438.1
287.86	17442.3
289.114	17444.6
290.368	17452.8
291.621	17467.2
292.875	17490.9
294.127	17524.5
295.38	17553.8
296.632	17576.5
297.884	17593.9
299.137	17604.1
300.388	17609
301.641	17608.6
302.891	17604
304.142	17598.5
305.394	17606.5
306.644	17630
307.894	17644
309.146	17656.6
310.395	17666.7
311.645	17671.8
312.895	17675.6
314.144	17676.3
315.393	17676.1
316.642	17676.4
317.892	17687
319.14	17714.4
320.388	17742.8
321.637	17776.2
322.885	17815.2
324.132	17838.9
325.38	17851.5
326.628	17850.6
327.875	17853.5
329.122	17860.2
330.368	17870.3
331.614	17880.3
332.862	17899.6
334.108	17925.5
335.353	17958.5
336.599	17981.4
337.844	17990.8
339.089	17995.7
340.335	18001.8
341.58	18006.5
342.824	18010.5
344.068	18013.4
345.312	18028.5
346.556	18050.2
347.8	18069.9
349.043	18085.8
350.286	18098.9
351.53	18109.3
352.774	18124.5
354.016	18124
355.259	18126.3
356.501	18118.1
357.743	18111.8
358.985	18109
360.227	18100.5
361.468	18111.2
362.709	18131.5
363.95	18154.8
365.191	18175.2
366.432	18191.1
367.672	18203.8
368.912	18214.1
370.152	18221.3
371.392	18227.8
372.632	18230.4
373.871	18234.1
375.11	18238.1
376.348	18243.7
377.587	18250.4
378.825	18258.5
380.064	18273.4
381.302	18292
382.54	18311.8
383.778	18338
385.016	18342
386.253	18329.4
387.489	18320.8
388.726	18308.3
389.963	18307.9
391.199	18320.7
392.436	18362.9
393.672	18407.1
394.907	18428.9
396.142	18447.3
397.378	18456
398.614	18448.5
399.849	18442.8
401.082	18434.3
402.317	18427.6
403.552	18440.1
404.786	18466.9
406.019	18490
407.253	18524.6
408.487	18558.6
409.721	18557.5
410.953	18539.8
412.186	18530.2
413.419	18511.1
414.651	18513.1
415.883	18533.8
417.116	18607.5
418.347	18639.7
419.579	18646.4
420.811	18623.5
422.041	18569.1
423.272	18557.2
424.504	18551.5
425.733	18550.1
426.964	18554.4
428.194	18572.1
429.424	18586.6
430.654	18598.5
431.883	18604
433.113	18607.2
434.341	18612.4
435.571	18617.3
436.799	18619.6
438.028	18628.7
439.257	18639.7
440.484	18653.8
441.713	18668.7
442.94	18680.3
444.168	18687
445.394	18690
446.622	18689.8
447.848	18686.3
449.076	18680
450.301	18668.5
451.528	18661.3
452.754	18669.4
453.979	18681.4
455.205	18698.2
456.43	18704.8
457.656	18712.2
458.88	18719.1
460.106	18726.1
461.33	18735
462.554	18744.9
463.779	18757.8
465.002	18772.3
466.225	18784.9
467.45	18793
468.672	18797.8
469.895	18799.2
471.119	18796.7
472.341	18789.8
473.563	18777.6
474.786	18760.2
476.008	18738.2
477.229	18714.6
478.452	18701.2
479.673	18701.4
480.894	18721.8
482.115	18748.6
483.337	18767.8
484.557	18771.2
485.777	18775
486.997	18763.5
488.218	18753.2
489.438	18745.2
490.657	18740.3
491.876	18741.6
493.096	18738.9
494.315	18733.6
495.533	18721.6
496.752	18709
497.97	18697.1
499.188	18685.8
500.407	18696
501.625	18709.2
502.842	18737.8
504.059	18757.6
505.276	18764.4
506.493	18758.9
507.71	18759.7
508.926	18756.4
510.142	18742.5
511.358	18729.3
512.575	18724.5
513.791	18740.5
515.006	18777.6
516.222	18807
517.437	18832.7
518.651	18855.6
519.866	18876.4
521.081	18892.6
522.295	18902.3
523.509	18894.2
524.723	18879
525.937	18873.1
527.15	18866.6
528.363	18902.4
529.576	18923.7
530.789	18918.1
532.002	18899.1
533.215	18892.2
534.426	18894.8
535.638	18912.4
536.85	18951.6
538.061	19012.2
539.273	19035.4
540.484	19028.8
541.695	18977.4
542.906	18956.6
544.117	18939.5
545.327	18932.8
546.537	18936.7
547.747	18946.9
548.957	18962.6
550.167	18983.5
551.377	19000.8
552.585	19011.9
553.794	19007.8
555.003	18993.6
556.212	18964.8
557.421	18944
558.628	18927.5
559.836	18917.6
561.044	18915.7
562.252	18921
563.458	18932.6
564.666	18948.1
565.873	18967.1
567.08	18989.3
568.286	19002.8
569.493	19004.8
570.699	18989.3
571.904	18975.5
573.111	18976
574.317	18980.4
575.521	18983.7
576.727	18991.8
577.932	19000.3
579.136	19008.5
580.341	19013.9
581.544	19013.1
582.749	19014.2
583.954	19022.1
585.156	19027.6
586.361	19028.5
587.563	19019.1
588.767	19007.3
589.97	18992.4
591.172	18987.4
592.375	18982.9
593.577	18987
594.78	18991.4
595.981	18994.8
597.183	18994.4
598.384	18994.4
599.586	18992.8
600.786	18989.8
601.988	18985.3
603.188	18978.7
604.389	18970
605.589	18959
606.79	18944.1
607.989	18932.7
609.188	18924.6
610.389	18941.8
611.587	18948.7
612.787	18943.3
613.986	18932.2
615.184	18919.4
616.383	18905.9
617.581	18890.2
618.78	18873.4
619.977	18857
621.174	18839.9
622.373	18821
623.57	18801.8
624.766	18782.5
625.964	18766.2
627.16	18779.9
628.356	18796.8
629.554	18812
630.749	18822.4
631.945	18826.8
633.14	18818.7
634.337	18798.8
635.532	18776.4
636.726	18755.9
637.921	18733.5
639.117	18712.9
640.311	18698.2
641.505	18691.4
642.699	18692.7
643.892	18698.7
645.087	18708.6
646.28	18721.8
647.473	18735
648.666	18752
649.859	18792.7
651.051	18763.1
652.245	18726.9
653.437	18705.5
654.629	18706.9
655.821	18727.4
657.012	18759.2
658.204	18795.7
659.395	18805.9
660.586	18810.6
661.777	18808
662.967	18798.6
664.158	18781
665.349	18757.3
666.539	18723.9
667.729	18725.5
668.919	18731.6
670.109	18744.8
671.298	18766.2
672.487	18786.6
673.676	18796.3
674.865	18800.5
676.053	18801.2
677.242	18799.5
678.43	18798.9
679.616	18798.2
680.804	18800.1
681.992	18803.9
683.179	18808.7
684.366	18808
685.554	18799.6
686.74	18776.6
687.927	18782
689.114	18786.4
690.3	18838.5
691.486	18811.6
692.671	18778.8
693.856	18746.2
695.042	18713.2
696.227	18684.1
697.413	18665.1
698.598	18661
699.781	18672.1
700.966	18681.7
702.15	18689.8
703.334	18697.9
704.518	18700.4
705.701	18695.1
706.885	18683.5
708.068	18668.7
709.252	18653.3
710.433	18640.1
711.616	18634.2
712.799	18628.3
713.98	18623.6
715.163	18619.9
716.345	18616.3
717.527	18612.5
718.707	18608.7
719.889	18606.4
721.071	18601.8
722.25	18603.3
723.432	18612.3
724.611	18611.6
725.792	18595.5
726.972	18587.8
728.151	18602.3
729.332	18621.4
730.512	18629.7
731.69	18632.3
732.87	18628.4
734.048	18622.3
735.227	18634.5
736.405	18642.9
737.584	18654.3
738.761	18669.9
739.94	18692.2
741.117	18695.9
742.295	18698.4
743.471	18698.5
744.649	18697.6
745.825	18699.7
747.003	18704
748.179	18714.8
749.356	18726.5
750.531	18739.6
751.708	18752.8
752.883	18758.6
754.059	18758.9
755.234	18747.2
756.409	18735.3
757.585	18734.9
758.759	18727.4
759.934	18721.7
761.108	18713.2
762.282	18699.4
763.456	18684.1
764.63	18666
765.803	18645
766.977	18622.3
768.15	18600.8
769.323	18592.7
770.496	18596.2
771.668	18613
772.841	18625.3
774.014	18629.7
775.185	18632.5
776.357	18617.7
777.528	18591.6
778.701	18566.4
779.872	18549.6
781.042	18532.8
782.213	18518.9
783.383	18508.2
784.555	18499.7
785.725	18494.4
786.895	18491.3
788.064	18490.1
789.234	18486.7
790.404	18466.9
791.573	18456.5
792.742	18447.3
793.911	18434.5
795.08	18422.1
796.248	18410.5
797.416	18400.5
798.584	18392.6
799.753	18386.7
800.921	18384.2
802.088	18383.2
803.256	18384.4
804.423	18387.7
805.59	18393.4
806.756	18401.9
807.923	18414.6
809.089	18424
810.256	18426.8
811.422	18413.2
812.587	18406.9
813.753	18403.3
814.918	18400.7
816.084	18397.4
817.249	18394.2
818.414	18394.3
819.578	18397.3
820.743	18404.1
821.907	18416.5
823.072	18425.4
824.236	18428.3
825.399	18432
826.562	18438.2
827.725	18444.9
828.889	18451.7
830.052	18459.1
831.215	18466.4
832.377	18472.3
833.54	18473.7
834.701	18472.3
835.863	18469.4
837.025	18466.4
838.187	18463
839.349	18459.4
840.51	18456.2
841.67	18455
842.831	18457.3
843.992	18462.4
845.153	18469.6
846.312	18478.7
847.473	18488.7
848.633	18499.1
849.793	18497.7
850.951	18477.2
852.111	18442.7
853.27	18403.3
854.428	18366.9
855.588	18345
856.747	18321.9
857.904	18304.9
859.063	18292.5
860.221	18286
861.378	18287.2
862.536	18296.6
863.694	18317.7
864.85	18331.8
866.008	18280.9
867.164	18242.5
868.321	18204.5
869.478	18168.9
870.633	18145.4
871.79	18123.1
872.945	18128.9
874.101	18152.1
875.256	18169.3
876.412	18170.4
877.566	18158.8
878.722	18142.8
879.876	18122.7
881.031	18103.4
882.185	18087
883.34	18070.8
884.493	18055.1
885.647	18040.5
886.8	18028.6
887.954	18021.2
889.107	18020.8
890.261	18021.3
891.413	18022.9
892.565	18025.8
893.718	18029.6
894.87	18033.5
896.023	18037.1
897.174	18039.7
898.326	18042.4
899.478	18044.1
900.629	18044.3
901.779	18041.9
902.931	18038.3
904.081	18032.1
905.231	18026.2
906.383	18024.8
907.532	18027
908.682	18035.6
909.831	18054.6
910.982	18072.7
912.131	18092.2
913.28	18086.8
914.429	18081
915.578	18071.3
916.727	18070.3
917.875	18073.5
919.023	18076.6
920.171	18083.2
921.32	18090.9
922.467	18101
923.614	18107.3
924.761	18083.9
925.908	18071.7
927.055	18062.7
928.203	18056.4
929.349	18053.1
930.496	18053.9
931.642	18058
932.787	18065.3
933.933	18075.1
935.079	18047.5
936.224	18025.8
937.369	18044
938.514	18082.8
939.659	18080.3
940.804	18066.5
941.948	18045.8
943.092	18013.2
944.236	17984.6
945.38	17966.8
946.524	17964.9
947.667	17974.9
948.811	17967.3
949.954	17956.6
951.097	17941.8
952.24	17929.5
953.383	17919.2
954.525	17910.3
955.667	17903.9
956.81	17900
957.952	17897.6
959.093	17894.7
960.235	17891.1
961.376	17888.8
962.516	17872.6
963.658	17851.7
964.798	17824.9
965.939	17792.3
967.08	17752.6
968.22	17741.8
969.359	17749.7
970.499	17783.2
971.639	17801.8
972.779	17775.5
973.918	17754.6
975.056	17736.8
976.195	17721
977.334	17717.3
978.473	17716.6
979.61	17723
980.749	17735.1
981.887	17755.6
983.024	17772.7
984.162	17773.6
985.3	17770.9
986.437	17765.4
987.573	17764.4
988.711	17768.1
989.848	17773.3
990.983	17780
992.12	17789.8
993.255	17801.2
994.392	17815
995.528	17827
996.662	17822.6
997.798	17801
998.933	17745.4
1000.07	17743.1
1001.2	17743.6
1002.34	17743.5
1003.47	17742.8
1004.61	17740.7
1005.74	17737.5
1006.87	17733.3
1008.01	17727.2
1009.14	17734.5
1010.27	17753.8
1011.41	17770.8
1012.54	17785.4
1013.67	17789.3
1014.81	17789
1015.94	17784
1017.07	17774.6
1018.2	17757.8
1019.33	17739.7
1020.47	17723.1
1021.6	17723.2
1022.73	17729.5
1023.86	17735.9
1024.99	17727.6
1026.12	17714.3
1027.25	17697.3
1028.38	17678.4
1029.51	17661
1030.64	17644.9
1031.77	17626.5
1032.9	17607.5
1034.03	17587.4
1035.16	17566.4
1036.29	17544.5
1037.42	17520.9
1038.55	17497.4
1039.67	17486.4
1040.8	17499.5
1041.93	17501.3
1043.06	17500
1044.19	17493.4
1045.31	17481.7
1046.44	17467.2
1047.57	17451.6
1048.69	17435.4
1049.82	17420.2
1050.95	17410
1052.08	17404.5
1053.2	17403.2
1054.33	17402.1
1055.45	17404.4
1056.58	17408.9
1057.7	17417.3
1058.83	17427.2
1059.95	17434
1061.08	17435.8
1062.2	17423.7
1063.33	17404
1064.45	17374.3
1065.58	17337.8
1066.7	17296.2
1067.83	17278.3
1068.95	17285.3
1070.07	17291.2
1071.2	17321.6
1072.32	17345.1
1073.44	17350.7
1074.56	17352
1075.69	17352
1076.81	17341.8
1077.93	17330.5
1079.05	17327.7
1080.17	17329.5
1081.3	17337.2
1082.42	17347.8
1083.54	17360.6
1084.66	17297.2
1085.78	17285.9
1086.9	17301.6
1088.02	17341.9
1089.14	17352.9
1090.26	17361.3
1091.38	17363.4
1092.5	17362.6
1093.62	17359.1
1094.74	17352.7
1095.86	17344
1096.98	17334.9
1098.1	17326.6
1099.22	17320.9
1100.34	17323.5
1101.45	17330.5
1102.57	17330.3
1103.69	17326.4
1104.81	17320.4
1105.93	17297
1107.04	17299.4
1108.16	17302.9
1109.28	17314.6
1110.4	17335.4
1111.51	17326.6
1112.63	17310.3
1113.75	17275.6
1114.86	17230.1
1115.98	17208
1117.09	17196.9
1118.21	17225.5
1119.32	17228.8
1120.44	17220.9
1121.55	17202.7
1122.67	17172.3
1123.78	17146.5
1124.9	17123.4
1126.01	17094.4
1127.13	17071.9
1128.24	17057.7
1129.35	17049.5
1130.47	17044.8
1131.58	17031.4
1132.7	17018
1133.81	17004.6
1134.92	16987.2
1136.03	16968.9
1137.15	16949.2
1138.26	16928.6
1139.37	16910.6
1140.48	16895.1
1141.59	16882.8
1142.71	16874.2
1143.82	16869.1
1144.93	16868.3
1146.04	16853.3
1147.15	16835.8
1148.26	16816.8
1149.37	16795.1
1150.48	16761.4
1151.59	16738.3
1152.7	16731.9
1153.81	16732.6
1154.92	16729.6
1156.03	16721.4
1157.14	16708.7
1158.25	16713.5
1159.36	16724.8
1160.47	16740.6
1161.58	16756.5
1162.68	16765.7
1163.79	16771.5
1164.9	16759
1166.01	16728.9
1167.12	16711.8
1168.22	16699.6
1169.33	16708.1
1170.44	16717.8
1171.55	16733.9
1172.65	16744.7
1173.76	16738.9
1174.87	16734.2
1175.97	16728.5
1177.08	16723.8
1178.18	16720
1179.29	16718.2
1180.4	16719.7
1181.5	16727.4
1182.61	16719.3
1183.71	16710.2
1184.82	16709.3
1185.92	16715
1187.02	16727.4
1188.13	16748.6
1189.23	16772.1
1190.34	16787.4
1191.44	16794.7
1192.54	16794.7
1193.65	16789.8
1194.75	16781
1195.85	16777.3
1196.96	16773.8
1198.06	16770.5
1199.16	16768
1200.26	16767.4
1201.37	16766.7
1202.47	16765.8
1203.57	16763.5
1204.67	16759.1
1205.77	16752
1206.87	16742.4
1207.97	16731.5
1209.08	16721.7
1210.18	16712.4
1211.28	16705.6
1212.38	16703.3
1213.48	16699.2
1214.58	16695.1
1215.68	16690.2
1216.78	16679.4
1217.88	16664.7
1218.98	16658.7
1220.07	16658.4
1221.17	16659.6
1222.27	16657.2
1223.37	16648.4
1224.47	16635.1
1225.57	16622
1226.66	16612.7
1227.76	16603.7
1228.86	16594.8
1229.96	16586.8
1231.06	16579.7
1232.15	16572.8
1233.25	16565.3
1234.35	16553.2
1235.44	16538.6
1236.54	16526
1237.63	16513.9
1238.73	16501.1
1239.83	16489.4
1240.92	16482.6
1242.02	16479.6
1243.11	16477.8
1244.21	16469.1
1245.3	16452.5
1246.4	16439.8
1247.49	16426.3
1248.59	16412.9
1249.68	16398.7
1250.78	16384.8
1251.87	16377.5
1252.96	16375.4
1254.06	16379.7
1255.15	16384.1
1256.24	16389
1257.34	16388.6
1258.43	16384.5
1259.52	16379.3
1260.62	16369.3
1261.71	16367.7
1262.8	16367.2
1263.89	16367.5
1264.98	16369
1266.08	16371.2
1267.17	16372.9
1268.26	16373.7
1269.35	16373.4
1270.44	16372.1
1271.53	16369.3
1272.62	16364.4
1273.71	16355.9
1274.8	16349.6
1275.89	16345.2
1276.98	16343.6
1278.07	16347.5
1279.16	16351.4
1280.25	16359.1
1281.34	16364.5
1282.43	16366.7
1283.52	16353
1284.61	16343.1
1285.69	16337.8
1286.78	16334.8
1287.87	16334
1288.96	16338
1290.05	16346.1
1291.13	16358.3
1292.22	16373.2
1293.31	16391.4
1294.4	16410.6
1295.48	16416.8
1296.57	16418.1
1297.66	16412
1298.74	16391.2
1299.83	16371.8
1300.92	16358.2
1302	16349.8
1303.09	16349.6
1304.17	16357.8
1305.26	16363
1306.34	16364.1
1307.43	16361.6
1308.51	16351.1
1309.6	16345.3
1310.68	16342.5
1311.76	16342.7
1312.85	16344.6
1313.93	16347.5
1315.02	16352.3
1316.1	16348.8
1317.18	16334
1318.27	16314.8
1319.35	16308.4
1320.43	16304
1321.52	16302.7
1322.6	16298.9
1323.68	16289.9
1324.76	16276.4
1325.85	16258.3
1326.93	16237.4
1328.01	16220.5
1329.09	16206.4
1330.17	16194.5
1331.25	16185.8
1332.33	16180.8
1333.41	16178.2
1334.49	16181.4
1335.58	16189.3
1336.65	16189.4
1337.74	16180.4
1338.82	16175.8
1339.89	16171.3
1340.97	16181.3
1342.05	16180.4
1343.13	16175.6
1344.21	16153.6
1345.29	16134.5
1346.37	16125.4
1347.45	16116.3
1348.53	16104.5
1349.6	16102.9
1350.68	16102
1351.76	16101.8
1352.84	16103.1
1353.92	16102.4
1354.99	16096.5
1356.07	16092.2
1357.15	16087.3
1358.22	16082.3
1359.3	16071.5
1360.38	16067.5
1361.45	16070.4
1362.53	16076
1363.61	16079.4
1364.68	16089.9
1365.76	16094.2
1366.83	16097.4
1367.91	16099.2
1368.98	16097.7
1370.06	16091.6
1371.13	16087.8
1372.21	16086.8
1373.28	16086.2
1374.35	16086.5
1375.43	16087.8
1376.5	16090.4
1377.58	16093.6
1378.65	16096.3
1379.72	16092.7
1380.8	16066.5
1381.87	16048.4
1382.94	16036.8
1384.01	16028.2
1385.09	16021.9
1386.16	16016.8
1387.23	16011.5
1388.3	16006.6
1389.38	16002.6
1390.45	15999.1
1391.52	15995.6
1392.59	15991.2
1393.66	15988.3
1393.92	15986.5
1395	15985.1
1396.07	15983
1397.15	15980.7
1398.22	15977.5
1399.3	15973.3
1400.38	15967.9
1401.45	15961.2
1402.53	15952.4
1403.6	15942.2
1404.68	15930.5
1405.75	15917.3
1406.82	15907.4
1407.9	15900.5
1408.97	15903.1
1410.05	15908.2
1411.12	15908.4
1412.19	15904.2
1413.27	15896.2
1414.34	15884.7
1415.41	15862.2
1416.49	15855.7
1417.56	15862.3
1418.63	15877.7
1419.7	15876.6
1420.78	15867.9
1421.85	15849.9
1422.92	15825.4
1423.99	15790.7
1425.06	15762.8
1426.14	15746.5
1427.21	15751.7
1428.28	15766
1429.35	15784.7
1430.42	15800.8
1431.49	15811.8
1432.56	15817
1433.63	15813.9
1434.7	15804.9
1435.77	15792.5
1436.84	15776.9
1437.91	15763.8
1438.98	15755.8
1440.05	15746.9
1441.12	15738.1
1442.18	15729.3
1443.25	15721.5
1444.32	15713.3
1445.39	15704.6
1446.46	15693.7
1447.53	15682.3
1448.59	15669.9
1449.66	15673.4
1450.73	15688.6
1451.8	15697.5
1452.86	15712.1
1453.93	15727.4
1455	15726.2
1456.06	15713.9
1457.13	15696
1458.2	15682.5
1459.26	15678.2
1460.33	15676.4
1461.39	15678
1462.46	15683
1463.52	15691.7
1464.59	15703.8
1465.65	15718.4
1466.72	15724.6
1467.78	15722.9
1468.85	15712.3
1469.91	15689.8
1470.98	15663.1
1472.04	15641.6
1473.1	15625.4
1474.17	15639.7
1475.23	15655.9
1476.3	15668.3
1477.36	15677.8
1478.42	15684.5
1479.48	15688
1480.55	15688.5
1481.61	15685.1
1482.67	15680.2
1483.73	15667
1484.8	15625
1485.86	15579.4
1486.92	15547
1487.98	15534.7
1489.04	15537.9
1490.1	15540.2
1491.17	15542.1
1492.23	15543.5
1493.29	15543.9
1494.35	15540.6
1495.41	15536.6
1496.47	15532.6
1497.53	15527
1498.59	15521.3
1499.65	15511.7
1500.71	15480.7
1501.77	15525.6
1502.83	15532.1
1503.88	15522.7
1504.94	15504.8
1506	15486.9
1507.06	15471.1
1508.12	15452.8
1509.18	15436.9
1510.23	15423.5
1511.29	15412.4
1512.35	15403.5
1513.41	15396.5
1514.47	15391.1
1515.52	15387.6
1516.58	15385.3
1517.64	15383.1
1518.69	15378.8
1519.75	15360.8
1520.81	15353
1521.86	15353.2
1522.92	15352.3
1523.97	15346.2
1525.03	15340.3
1526.08	15334.9
1527.14	15330.1
1528.2	15325.7
1529.25	15321.7
1530.31	15317.7
1531.36	15314.1
1532.42	15309.5
1533.47	15303.1
1534.52	15294.9
1535.58	15284.6
1536.63	15272.8
1537.69	15255
1538.74	15237
1539.79	15238.3
1540.84	15242.3
1541.9	15248.8
1542.95	15256.1
1544	15263.4
1545.06	15263.3
1546.11	15257.4
1547.16	15248.4
1548.21	15237.4
1549.27	15223.3
1550.32	15204.2
1551.37	15183.4
1552.42	15169.1
1553.47	15178
1554.52	15214.2
1555.57	15221.1
1556.62	15220.2
1557.67	15165.4
1558.72	15171.3
1559.77	15173
1560.82	15175.5
1561.87	15188.6
1562.92	15200.5
1563.97	15209.9
1565.02	15214.8
1566.07	15216.7
1567.12	15215.8
1568.17	15212
1569.22	15204.5
1570.27	15194.2
1571.32	15181
1572.36	15166.7
1573.41	15164.3
1574.46	15164.7
1575.51	15166.2
1576.56	15169.2
1577.6	15171.4
1578.65	15175.9
1579.7	15180.1
1580.74	15184.8
1581.79	15186.6
1582.84	15188.9
1583.88	15189
1584.93	15185
1585.98	15165.5
1587.02	15128.2
1588.07	15097.9
1589.11	15077.6
1590.16	15065.8
1591.2	15056.6
1592.25	15057.6
1593.29	15064.4
1594.34	15082.5
1595.38	15099.6
1596.43	15101.7
1597.47	15095.8
1598.52	15081.4
1599.56	15066.3
1600.6	15021.4
1601.65	14967
1602.69	14926.9
1603.73	14904.3
1604.78	14930.7
1605.82	14946.9
1606.86	14941
1607.91	14921.2
1608.95	14914.1
1609.99	14903
1611.03	14897.6
1612.08	14892.6
1613.12	14889.6
1614.16	14887.6
1615.2	14885.5
1616.24	14880.6
1617.28	14856.9
1618.32	14835
1619.36	14818.5
1620.41	14809.5
1621.45	14808.4
1622.49	14800.4
1623.53	14797.7
1624.57	14787.7
1625.61	14765
1626.65	14744.6
1627.69	14723.4
1628.73	14707.7
1629.76	14698.9
1630.8	14683.7
1631.84	14679.2
1632.88	14689.6
1633.92	14711.8
1634.96	14722.5
1636	14712.4
1637.03	14689.1
1638.07	14662.1
1639.11	14630.4
1640.15	14590
1641.19	14569.1
1642.22	14566.8
1643.26	14584.6
1644.3	14604.8
1645.33	14621.2
1646.37	14622.2
1647.41	14573.5
1648.44	14566.1
1649.48	14557.6
1650.52	14559.6
1651.55	14563.4
1652.59	14561.7
1653.62	14557.9
1654.66	14551.2
1655.69	14540.9
1656.73	14527.1
1657.76	14510.5
1658.8	14490.3
1659.83	14469.1
1660.87	14458.3
1661.9	14464.8
1662.93	14467
1663.97	14467.1
1665	14465.8
1666.04	14462.5
1667.07	14458.2
1668.1	14450
1669.14	14441.3
1670.17	14435
1671.2	14430.2
1672.23	14428.5
1673.27	14425.9
1674.3	14423.5
1675.33	14421.1
1676.36	14418.4
1677.39	14416.1
1678.43	14414.4
1679.46	14415.1
1680.49	14416.3
1681.52	14411.5
1682.55	14401.7
1683.58	14393.2
1684.61	14387.4
1685.64	14382.2
1686.67	14376.9
1687.7	14371.9
1688.73	14366.3
1689.76	14360.2
1690.79	14352.9
1691.82	14346.4
1692.85	14344.3
1693.88	14348.6
1694.91	14377.2
1695.94	14358
1696.97	14336
1698	14312.7
1699.02	14287.2
1700.05	14261.2
1701.08	14239.4
1702.11	14227
1703.14	14219.5
1704.16	14216.4
1705.19	14209.7
1706.22	14205.5
1707.25	14202.6
1708.27	14201.8
1709.3	14202.9
1710.33	14202.7
1711.35	14200.7
1712.38	14189.7
1713.41	14174.9
1714.43	14157.2
1715.46	14139
1716.48	14120.4
1717.51	14119.1
1718.53	14143.6
1719.56	14132
1720.58	14115.9
1721.61	14097.6
1722.63	14079
1723.66	14062.5
1724.68	14047.8
1725.71	14042.5
1726.73	14035
1727.75	14017.6
1728.78	13986.8
1729.8	13977.3
1730.83	13974.3
1731.85	13971.2
1732.87	13965.7
1733.89	13960.7
1734.92	13953.9
1735.94	13945.9
1736.96	13937
1737.98	13926.9
1739.01	13916
1740.03	13904.3
1741.05	13893.2
1742.07	13889.1
1743.09	13888.6
1744.12	13889.6
1745.14	13861.2
1746.16	13847.9
1747.18	13845.7
1748.2	13848.6
1749.22	13845.3
1750.24	13832.9
1751.26	13812.5
1752.28	13798.4
1753.3	13780.8
1754.32	13767.1
1755.34	13760.8
1756.36	13757
1757.38	13758.2
1758.4	13760
1759.42	13762.1
1760.44	13763.9
1761.45	13758.8
1762.47	13753.3
1763.49	13745.6
1764.51	13723.1
1765.53	13704
1766.55	13686.2
1767.56	13672.5
1768.58	13679
1769.6	13675.3
1770.61	13662.3
1771.63	13649.9
1772.65	13637.7
1773.67	13625.3
1774.68	13613.9
1775.7	13610.3
1776.72	13614.1
1777.73	13628.7
1778.75	13642
1779.76	13651.4
1780.78	13651.9
1781.79	13649.2
1782.81	13642.5
1783.83	13632.3
1784.84	13617.3
1785.85	13598.6
1786.87	13577
1787.88	13555.1
1788.9	13539.4
1789.91	13526.2
1790.93	13522.1
1791.94	13518.7
1792.95	13516.6
1793.97	13515.2
1794.98	13514.1
1796	13512.5
1797.01	13508
1798.02	13502.3
1799.03	13494.6
1800.05	13484.1
1801.06	13472
1802.07	13461.3
1803.08	13450.5
1804.1	13441.7
1805.11	13422.8
1806.12	13400.9
1807.13	13349.6
1808.14	13399.8
1809.15	13419.2
1810.17	13403.7
1811.18	13379.4
1812.19	13350.7
1813.2	13328.8
1814.21	13310.9
1815.22	13297.5
1816.23	13286.2
1817.24	13277
1818.25	13269.2
1819.26	13262.1
1820.27	13255.3
1821.28	13247.3
1822.29	13239.2
1823.3	13229
1824.3	13219.4
1825.31	13212.7
1826.32	13207.8
1827.33	13214.1
1828.34	13208.1
1829.35	13202.3
1830.35	13182.4
1831.36	13154.7
1832.37	13129.2
1833.38	13104.7
1834.38	13079
1835.39	13067.3
1836.4	13068.6
1837.41	13073.8
1838.41	13076
1839.42	13080.5
1840.43	13078.6
1841.43	13068.4
1842.44	13050.4
1843.44	13024.5
1844.45	12990.8
1845.46	12968
1846.46	12947.8
1847.47	12930.4
1848.47	12916.5
1849.48	12906.6
1850.48	12900.3
1851.49	12898.2
1852.49	12900.7
1853.49	12908.2
1854.5	12913.3
1855.5	12914.9
1856.51	12912.3
1857.51	12905.7
1858.51	12895.6
1859.52	12882.1
1860.52	12865.3
1861.52	12847.3
1862.53	12831.8
1863.53	12833
1864.53	12837.1
1865.54	12841.3
1866.54	12845.7
1867.54	12848.8
1868.54	12841.8
1869.54	12830.8
1870.55	12816.8
1871.55	12799
1872.55	12777.6
1873.55	12751.7
1874.55	12729.9
1875.55	12711.2
1876.55	12703.3
1877.55	12704.7
1878.55	12703.3
1879.55	12695.8
1880.56	12685.1
1881.55	12675.8
1882.56	12655.4
1883.55	12630.9
1884.55	12615.8
1885.55	12612.9
1886.55	12620.8
1887.55	12627.1
1888.55	12634.7
1889.55	12640.6
1890.55	12640.4
1891.55	12628
1892.55	12611.5
1893.54	12597.1
1894.54	12585.2
1895.54	12576.5
1896.54	12568.6
1897.54	12570.4
1898.53	12568.4
1899.53	12569.2
1900.53	12552.8
1901.52	12533.7
1902.52	12511
1903.52	12492.8
1904.51	12480.9
1905.51	12472.7
1906.51	12466.1
1907.5	12464.2
1908.5	12465
1909.49	12467.2
1910.49	12462
1911.49	12448.7
1912.48	12433.5
1913.48	12415.7
1914.47	12395.6
1915.46	12384
1916.46	12369.3
1917.45	12357.1
1918.45	12344.5
1919.44	12326.5
1920.44	12309.9
1921.43	12293.1
1922.43	12278.2
1923.42	12264.9
1924.41	12254.2
1925.41	12250.9
1926.4	12248.6
1927.39	12248.1
1928.38	12247.3
1929.38	12246.1
1930.37	12243.6
1931.36	12241.5
1932.35	12238.6
1933.35	12232.4
1934.34	12222.5
1935.33	12199.7
1936.32	12177.1
1937.31	12154.7
1938.3	12132.9
1939.29	12120.4
1940.29	12120.8
1941.28	12123.4
1942.27	12132.1
1943.26	12131.5
1944.25	12135.6
1945.24	12018.6
1946.23	11998.4
1947.22	11973
1948.21	12019.9
1949.2	12017.2
1950.19	12009.3
1951.18	12004.7
1952.17	11998.5
1953.16	11989
1954.14	11979
1955.13	11968.5
1956.12	11957.4
1957.11	11948.1
1958.1	11938.5
1959.09	11928.6
1960.07	11914.9
1961.06	11897.1
1962.05	11875.8
1963.04	11854.3
1964.02	11831.1
1965.01	11813.1
1966	11810.6
1966.99	11808.9
1967.97	11812
1968.96	11819.8
1969.95	11832.4
1970.93	11849.3
1971.92	11864
1972.9	11854.9
1973.89	11830.3
1974.88	11802.1
1975.86	11770.3
1976.85	11746.2
1977.83	11719.1
1978.82	11707.2
1979.8	11709.7
1980.79	11710.7
1981.77	11717.4
1982.76	11716.5
1983.74	11712.8
1984.72	11702.8
1985.71	11691.9
1986.69	11679.1
1987.67	11668
1988.66	11656.9
1989.64	11645.8
1990.62	11636.2
1991.61	11626.8
1992.59	11617.2
1993.57	11607
1994.56	11588.9
1995.54	11569.8
1996.52	11549.2
1997.5	11535
1998.49	11522.1
1999.47	11515.8
2000.45	11514.3
2001.43	11514.1
2002.41	11515.5
2003.39	11508.8
2004.38	11491
2005.36	11495.7
2006.34	11495.8
2007.32	11532.6
2008.3	11505.4
2009.28	11478.8
2010.26	11453.7
2011.24	11429.3
2012.22	11410.2
2013.2	11395.8
2014.18	11391.7
2015.16	11389.1
2016.14	11388.5
2017.12	11386.4
2018.1	11382.8
2019.07	11377.3
2020.05	11371
2021.03	11363.7
2022.01	11354.8
2022.99	11344.5
2023.97	11332.6
2024.95	11320
2025.92	11306.8
2026.9	11293.3
2027.88	11279.6
2028.86	11268.1
2029.83	11257.1
2030.81	11244.1
2031.79	11220.5
2032.76	11194.6
2033.74	11174.5
2034.72	11163.4
2035.69	11156.4
2036.67	11152.8
2037.65	11152.5
2038.62	11151
2039.6	11148.5
2040.57	11146.6
2041.55	11145.1
2042.52	11144.7
2043.5	11142.8
2044.47	11125.1
2045.45	11114.5
2046.42	11108.1
2047.4	11099.4
2048.37	11088.6
2049.35	11074.3
2050.32	11078.9
2051.29	11052.5
2052.27	11013.9
2053.24	11005.3
2054.21	10999.6
2055.19	10998.7
2056.16	10990.1
2057.13	10980.5
2058.11	10970.7
2059.08	10959.8
2060.05	10947.9
2061.02	10934.5
2062	10920
2062.97	10904.4
2063.94	10889.4
2064.91	10892.5
2065.89	10910.5
2066.86	10934.8
2067.83	10886.2
2068.8	10848.6
2069.77	10811.3
2070.74	10783.4
2071.71	10763.2
2072.68	10750.9
2073.65	10745.7
2074.62	10748.3
2075.59	10759.1
2076.56	10775.5
2077.53	10786.9
2078.5	10739.9
2079.47	10723.9
2080.44	10736.8
2081.41	10730.2
2082.38	10719.5
2083.35	10705.2
2084.32	10687.4
2085.29	10667.3
2086.26	10644.1
2087.23	10626.7
2088.19	10619.6
2089.16	10625.3
2090.13	10629.8
2091.1	10621.5
2092.07	10607.2
2093.03	10593.5
2094	10580.1
2094.97	10566
2095.94	10551.3
2096.9	10536.8
2097.87	10523.8
2098.84	10512.3
2099.8	10504.1
2100.77	10498.3
2101.74	10494.6
2102.7	10484.6
2103.67	10459.1
2104.63	10459.1
2105.6	10466.7
2106.56	10475.1
2107.53	10476.8
2108.49	10468.7
2109.46	10450.9
2110.42	10418.2
2111.39	10384.8
2112.35	10357.1
2113.32	10331.6
2114.28	10315.9
2115.25	10309.6
2116.21	10312.3
2117.17	10325.8
2118.14	10337.5
2119.1	10345.2
2120.07	10335.5
2121.03	10322.2
2121.99	10311
2122.96	10299.3
2123.92	10287.5
2124.88	10277.7
2125.84	10267.9
2126.81	10258.3
2127.77	10248.9
2128.73	10239.5
2129.69	10230.1
2130.65	10220.4
2131.62	10210.6
2132.58	10200.1
2133.54	10188.8
2134.5	10177.7
2135.46	10164
2136.42	10149.9
2137.38	10136.9
2138.34	10125.4
2139.3	10115.4
2140.26	10106.7
2141.22	10097.8
2142.18	10090.3
2143.14	10083.5
2144.1	10078
2145.06	10073.2
2146.02	10069.6
2146.98	10067.6
2147.94	10068
2148.9	10071.3
2149.86	10078
2150.82	10025.3
2151.78	9989.68
2152.74	9983.41
2153.69	9984.43
2154.65	9981.25
2155.61	9973.6
2156.57	9961.6
2157.53	9945.31
2158.48	9925.3
2159.44	9905.6
2160.4	9884.99
2161.36	9867.77
2162.31	9857.63
2163.27	9854.45
2164.23	9857.6
2165.18	9866.34
2166.14	9867.05
2167.1	9856
2168.05	9837.09
2169.01	9822.17
2169.96	9805.1
2170.92	9787.43
2171.88	9770.22
2172.83	9753.15
2173.79	9736.52
2174.74	9720.3
2175.7	9705.94
2176.65	9689.85
2177.6	9668.67
2178.56	9650.44
2179.51	9633.87
2180.47	9618.74
2181.42	9604.75
2182.38	9592.33
2183.33	9580.89
2184.28	9570.35
2185.24	9560.87
2186.19	9551.94
2187.14	9544.83
2188.1	9538.7
2189.05	9534.03
2190	9529.45
2190.96	9521.46
2191.91	9512
2192.86	9500.78
2193.81	9489.86
2194.76	9479.11
2195.72	9468.07
2196.67	9457.06
2197.62	9446.31
2198.57	9435.83
2199.52	9426.57
2200.47	9424.88
2201.43	9421.72
2202.38	9418.37
2203.33	9413.6
2204.28	9407.19
2205.23	9394.38
2206.18	9381.56
2207.13	9368.85
2208.08	9356.57
2209.03	9345.24
2209.98	9335.28
2210.93	9326.08
2211.88	9317.51
2212.83	9310.01
2213.78	9303.19
2214.73	9297.36
2215.67	9291.89
2216.62	9286.24
2217.57	9280
2218.52	9271.61
2219.47	9262.36
2220.42	9249.32
2221.37	9218.89
2222.31	9208.37
2223.26	9211.1
2224.21	9217.39
2225.16	9223.26
2226.1	9228.26
2227.05	9210.4
2228	9197.16
2228.94	9185.36
2229.89	9173.69
2230.84	9171.91
2231.78	9173.17
2232.73	9172.56
2233.68	9170.79
2234.62	9167.04
2235.57	9162.49
2236.51	9158.61
2237.46	9158.77
2238.41	9157.76
2239.35	9157.14
2240.3	9156.03
2241.24	9153.26
2242.19	9148.11
2243.13	9141.98
2244.07	9137.05
2245.02	9132.62
2245.96	9131.22
2246.91	9118.23
2247.85	9091.04
2248.8	9071.07
2249.74	9062.16
2250.68	9070.5
2251.63	9075.19
2252.57	9077.4
2253.51	9077.79
2254.46	9080.59
2255.4	9075.75
2256.34	9068.04
2257.28	9058.6
2258.23	9048.7
2259.17	9034.29
2260.11	9020.55
2261.05	9009.87
2262	9002.91
2262.94	9001.35
2263.88	9003.52
2264.82	9010.95
2265.76	9019.95
2266.7	9026.01
2267.64	9029.9
2268.58	9027.03
2269.53	9020.26
2270.47	9009.86
2271.41	8999.99
2272.35	8994.09
2273.29	8991.55
2274.23	8990.51
2275.17	8990.61
2276.11	8991.43
2277.05	8987.95
2277.99	8982.1
2278.93	8973.99
2279.86	8961.96
2280.8	8951.67
2281.74	8943.73
2282.68	8937.37
2283.62	8933.83
2284.56	8933.68
2285.5	8934.46
2286.44	8934.98
2287.37	8936.49
2288.31	8938.35
2289.25	8938.82
2290.19	8938.55
2291.12	8936.35
2292.06	8930.66
2293	8923.09
2293.94	8917.12
2294.87	8911.72
2295.81	8905.46
2296.75	8904.7
2297.68	8908.07
2298.62	8907.75
2299.55	8905.63
2300.49	8901.29
2301.43	8892.42
2302.36	8880.42
2303.3	8867.9
2304.23	8855.64
2305.17	8843.67
2306.1	8831.91
2307.04	8821.94
2307.98	8818.03
2308.91	8813.64
2309.84	8807.11
2310.78	8797.99
2311.71	8787.11
2312.65	8775.51
2313.58	8763.48
2314.52	8750.09
2315.45	8733.94
2316.38	8718.65
2317.32	8708.33
2317.72	8705.68
2318.66	8721.44
2319.6	8736.26
2320.54	8739.68
2321.48	8735.17
2322.41	8721
2323.35	8705.9
2324.29	8703.85
2325.23	8696.42
2326.16	8685.91
2327.1	8674.88
2328.04	8662.54
2328.97	8649.39
2329.91	8636.53
2330.85	8624.24
2331.78	8612.79
2332.72	8602.78
2333.66	8593.64
2334.59	8585.12
2335.53	8577.7
2336.46	8571.52
2337.4	8567.66
2338.33	8569.16
2339.27	8574.83
2340.2	8568.42
2341.14	8559.66
2342.07	8551.29
2343.01	8543.21
2343.94	8535.6
2344.88	8528.2
2345.81	8520.4
2346.75	8513.03
2347.68	8505.37
2348.61	8497.87
2349.55	8490.89
2350.48	8485.11
2351.41	8500.62
2352.35	8515.1
2353.28	8515.08
2354.21	8494.8
2355.15	8470.82
2356.08	8456.94
2357.01	8452.43
2357.94	8445.53
2358.88	8440.39
2359.81	8438.91
2360.74	8438.05
2361.67	8433.67
2362.6	8420.9
2363.54	8395.54
2364.47	8385.82
2365.4	8377.4
2366.33	8369.56
2367.26	8362.84
2368.19	8356.6
2369.12	8353.21
2370.05	8352.33
2370.98	8352.55
2371.91	8353.49
2372.84	8353.65
2373.77	8353.67
2374.7	8353.74
2375.63	8351.61
2376.56	8349.97
2377.49	8348.95
2378.42	8350.26
2379.35	8354.1
2380.28	8365.75
2381.21	8365.2
2382.14	8348.24
2383.07	8322.78
2384	8287.04
2384.92	8263.08
2385.85	8245.11
2386.78	8233.85
2387.71	8230.54
2388.64	8232.6
2389.56	8236.35
2390.49	8241.8
2391.42	8243.17
2392.35	8243.7
2393.27	8242.81
2394.2	8241
2395.13	8237.53
2396.05	8233.09
2396.98	8227.94
2397.91	8222.28
2398.83	8228.22
2399.76	8219.93
2400.69	8209.03
2401.61	8203.59
2402.54	8198.79
2403.46	8194.89
2404.39	8187.41
2405.31	8179.22
2406.24	8169.72
2407.17	8159.77
2408.09	8146.8
2409.01	8132.28
2409.94	8116.41
2410.86	8099.42
2411.79	8083.96
2412.71	8076.58
2413.64	8068.78
2414.56	8062.78
2415.49	8058.28
2416.41	8055.72
2417.33	8054.52
2418.26	8053.61
2419.18	8050.61
2420.1	8043.99
2421.03	8029.31
2421.95	8000.3
2422.87	7998.23
2423.79	7989.42
2424.72	7983.26
2425.64	7980.05
2426.56	7979.38
2427.48	7981.5
2428.41	7985.23
2429.33	7989.48
2430.25	7991.4
2431.17	7975.73
2432.09	7961.31
2433.01	7938.53
2433.93	7914.76
2434.86	7896.37
2435.78	7883.75
2436.7	7883.4
2437.62	7883.37
2438.54	7880.5
2439.46	7871.68
2440.38	7863.08
2441.3	7853.79
2442.22	7844.31
2443.14	7835.42
2444.06	7825.73
2444.98	7824.81
2445.9	7823.74
2446.82	7821.06
2447.73	7800.2
2448.65	7779.59
2449.57	7773.38
2450.49	7770.74
2451.41	7772.73
2452.33	7782.23
2453.25	7789.79
2454.17	7796.71
2455.08	7794.48
2456	7783.06
2456.92	7762.71
2457.84	7743.13
2458.75	7719.22
2459.67	7690.15
2460.59	7678.8
2461.51	7678.67
2462.42	7680.99
2463.34	7683.65
2464.26	7681.26
2465.17	7678.1
2466.09	7672.89
2467	7665.87
2467.92	7656.49
2468.84	7645.11
2469.75	7632.3
2470.67	7618.77
2471.58	7608.55
2472.5	7603.88
2473.42	7599.16
2474.33	7595.28
2475.25	7592.59
2476.16	7584.61
2477.08	7563.12
2477.99	7544.99
2478.9	7536.99
2479.82	7536
2480.73	7535.2
2481.65	7532.69
2482.56	7530.74
2483.47	7530.31
2484.39	7529.2
2485.3	7528.59
2486.22	7527.23
2487.13	7525.13
2488.04	7521.59
2488.96	7516.75
2489.87	7509.84
2490.78	7501.21
2491.69	7490.88
2492.61	7479.11
2493.52	7465.5
2494.43	7454.59
2495.34	7459.84
2496.25	7465.96
2497.17	7475.54
2498.08	7480.47
2498.99	7482.59
2499.9	7485.25
2500.81	7486.1
2501.72	7486.61
2502.63	7485.55
2503.55	7482.13
2504.46	7475.34
2505.37	7462.49
2506.28	7446.83
2507.19	7427.97
2508.1	7413.47
2509.01	7401.28
2509.92	7391.88
2510.83	7385.79
2511.74	7383.48
2512.65	7382.62
2513.56	7382.17
2514.47	7379.36
2515.37	7376.73
2516.28	7373.35
2517.19	7369.39
2518.1	7364.85
2519.01	7359.61
2519.92	7354.13
2520.83	7350.53
2521.73	7346.27
2522.64	7340.68
2523.55	7328.39
2524.46	7314.86
2525.37	7311.74
2526.27	7304.35
2527.18	7310.01
2528.09	7317.83
2529	7330.69
2529.9	7324.38
2530.81	7306.93
2531.72	7287.28
2532.62	7268.32
2533.53	7256.13
2534.44	7247.45
2535.34	7241.15
2536.25	7237.9
2537.15	7237.49
2538.06	7239.66
2538.96	7243.23
2539.87	7236.7
2540.78	7216.64
2541.68	7198
2542.59	7189.94
2543.49	7181.05
2544.4	7175.93
2545.3	7174.56
2546.21	7176.38
2547.11	7181.58
2548.01	7186.25
2548.92	7174.88
2549.82	7169.28
2550.73	7156.8
2551.63	7137.88
2552.53	7121.7
2553.44	7112.57
2554.34	7103.44
2555.24	7095.44
2556.15	7092.51
2557.05	7087.51
2557.95	7081.7
2558.86	7077.25
2559.76	7072.86
2560.66	7070.13
2561.56	7067.74
2562.46	7066.7
2563.37	7064.01
2564.27	7040.36
2565.17	7021.58
2566.07	7011.6
2566.97	7011.8
2567.88	7024.27
2568.78	7023.09
2569.68	7008.72
2570.58	6986.47
2571.48	6959.37
2572.38	6979.49
2573.28	6981.61
2574.18	6976.82
2575.08	6969.7
2575.98	6962.48
2576.88	6951.16
2577.78	6931.66
2578.68	6916.75
2579.58	6905.68
2580.48	6898.36
2581.38	6894.02
2582.28	6890.33
2583.18	6886.14
2584.08	6882.58
2584.98	6877.95
2585.88	6872.08
2586.77	6864.02
2587.67	6849.45
2588.57	6835.28
2589.47	6819.76
2590.37	6801.35
2591.27	6784.39
2592.16	6772.04
2593.06	6772.8
2593.96	6777.61
2594.86	6781.96
2595.75	6786.6
2596.65	6789.91
2597.55	6790.18
2598.45	6786.82
2599.34	6780.79
2600.24	6773.28
2601.13	6764.74
2602.03	6755.89
2602.93	6748.15
2603.82	6740.31
2604.72	6732.54
2605.62	6725.57
2606.51	6718.6
2607.41	6712.29
2608.3	6706.48
2609.2	6700.2
2610.09	6691.25
2610.99	6683.1
2611.88	6677.93
2612.78	6675.17
2613.67	6673.97
2614.57	6675.16
2615.46	6682.65
2616.36	6677.57
2617.25	6674.39
2618.14	6666.75
2619.04	6656.81
2619.93	6646.82
2620.83	6637.56
2621.72	6636.26
2622.61	6636.17
2623.5	6631.73
2624.4	6627.38
2625.29	6611.11
2626.18	6597.17
2627.08	6585.77
2627.97	6577.72
2628.86	6572.77
2629.75	6565.4
2630.65	6570.34
2631.54	6569.77
2632.43	6568.1
2633.32	6554.96
2634.21	6541.81
2635.11	6530.72
2636	6521.45
2636.89	6514.4
2637.78	6509.84
2638.67	6504.73
2639.56	6498.98
2640.45	6487.78
2641.34	6468.58
2642.23	6454.42
2643.12	6443.58
2644.01	6430.89
2644.9	6418.05
2645.79	6405.74
2646.68	6394.36
2647.57	6384.1
2648.46	6374.93
2649.35	6367.24
2650.24	6360.47
2651.13	6354.46
2652.02	6349.09
2652.91	6343.75
2653.8	6338.6
2654.69	6327.4
2655.58	6314.49
2656.46	6313.67
2657.35	6324.24
2658.24	6328.08
2659.13	6322.59
2660.02	6310.01
2660.9	6298.91
2661.79	6289.24
2662.68	6279.63
2663.57	6270.49
2664.45	6262.02
2665.34	6254.26
2666.23	6247.46
2667.11	6242.13
2668	6237.91
2668.89	6234.84
2669.77	6229.92
2670.66	6228
2671.55	6226.02
2672.43	6224.62
2673.32	6222.57
2674.21	6218.6
2675.09	6210.88
2675.98	6195.41
2676.86	6186.87
2677.75	6173.64
2678.63	6166.72
2679.52	6165.51
2680.4	6170.36
2681.29	6179.33
2682.17	6187.04
2683.06	6194.38
2683.94	6186.98
2684.82	6124.98
2685.71	6102.91
2686.59	6071.39
2687.48	6098.29
2688.36	6105.1
2689.24	6096.12
2690.13	6078.97
2691.01	6081.76
2691.89	6085.67
2692.78	6086.76
2693.66	6084.65
2694.54	6079.59
2695.43	6071.39
2696.31	6060.17
2697.19	6045.35
2698.07	6028.05
2698.96	6011.15
2699.84	6001.89
2700.72	5993.99
2701.6	5989.44
2702.48	5988.23
2703.36	5990.13
2704.25	5994.9
2705.13	6000.48
2706.01	5995.82
2706.89	5986.23
2707.77	5970.34
2708.65	5959.02
2709.53	5945.53
2710.41	5940.27
2711.29	5932.85
2712.17	5929.27
2713.05	5925.95
2713.93	5911.89
2714.81	5903.01
2715.69	5893.17
2716.57	5893.07
2717.45	5896.97
2718.33	5896.78
2719.21	5885.82
2720.09	5872.39
2720.97	5864.83
2721.85	5855.33
2722.73	5842.87
2723.61	5831.96
2724.48	5825.4
2725.36	5826.13
2726.24	5828.14
2727.12	5830.1
2728	5831.21
2728.88	5832.76
2729.75	5827.11
2730.63	5821.55
2731.51	5805.6
2732.39	5794.97
2733.26	5793.48
2734.14	5793.39
2735.02	5795.24
2735.89	5794.18
2736.77	5792.63
2737.65	5790.48
2738.52	5786.9
2739.4	5782.33
2740.28	5776.69
2741.15	5770.04
2742.03	5762.29
2742.9	5753.93
2743.78	5748.66
2744.65	5743.89
2745.53	5739.13
2746.41	5735.4
2747.28	5732.71
2748.16	5729.34
2749.03	5723.92
2749.91	5716.03
2750.78	5706.17
2751.66	5697.16
2752.53	5692.12
2753.4	5690.51
2754.28	5686.19
2755.15	5697.37
2756.02	5703.63
2756.9	5700.98
2757.77	5687.48
2758.65	5666.14
2759.52	5645.29
2760.39	5628.17
2761.27	5622.86
2762.14	5619.23
2763.01	5619.58
2763.88	5621.39
2764.76	5622.01
2765.63	5623.72
2766.5	5624.82
2767.37	5623.51
2768.25	5620.81
2769.12	5616.56
2769.99	5611.17
2770.86	5603.56
2771.73	5590.52
2772.61	5568.41
2773.48	5547.08
2774.35	5539.34
2775.22	5534.27
2776.09	5532.96
2776.96	5542.05
2777.83	5553.27
2778.7	5563.81
2779.57	5570.61
2780.44	5571.67
2781.31	5568.8
2782.18	5561.73
2783.05	5550.62
2783.92	5535.36
2784.79	5515.42
2785.66	5491.74
2786.53	5470.84
2787.4	5466.06
2788.27	5469.68
2789.14	5472.37
2790.01	5465.33
2790.88	5458.6
2791.75	5451.9
2792.62	5445.5
2793.48	5439.85
2794.35	5436.14
2795.22	5433.24
2796.09	5431.25
2796.96	5430.36
2797.82	5430.43
2798.69	5431.5
2799.56	5432.86
2800.43	5432.81
2801.29	5426.95
2802.16	5419.42
2803.03	5409.71
2803.9	5397.89
2804.76	5383.34
2805.63	5367.59
2806.5	5363.04
2807.36	5361.93
2808.23	5358.8
2809.09	5356.29
2809.96	5351.81
2810.83	5345.13
2811.69	5337.8
2812.56	5328.85
2813.42	5318.95
2814.29	5308.17
2815.15	5297.61
2816.02	5293.39
2816.88	5289.62
2817.75	5286.62
2818.61	5284.92
2819.48	5283.76
2820.34	5285.26
2821.21	5286.81
2822.07	5287.2
2822.94	5282.66
2823.8	5270.37
2824.66	5263.94
2825.53	5258.49
2826.39	5253.61
2827.26	5259.63
2828.12	5257.4
2828.98	5254.05
2829.85	5249.35
2830.71	5240.53
2831.57	5236.93
2832.43	5229.86
2833.3	5232.74
2834.16	5233.32
2835.02	5228.12
2835.88	5226.72
2836.75	5215.94
2837.61	5198.5
2838.47	5189.84
2839.33	5180.36
2840.19	5186.71
2841.06	5195.62
2841.92	5203.03
2842.78	5187.34
2843.64	5145.11
2844.5	5124.96
2845.36	5137.96
2846.22	5171.87
2847.08	5191.93
2847.94	5169.55
2848.81	5169.19
2849.67	5165.17
2850.53	5159.21
2851.39	5149.64
2852.25	5138.33
2853.11	5127.51
2853.97	5119.08
2854.82	5111.71
2855.68	5105.4
2856.54	5100.98
2857.4	5097.55
2858.26	5095.93
2859.12	5095.4
2859.98	5095.48
2860.84	5094.6
2861.7	5088.47
2862.56	5079.69
2863.41	5067.67
2864.27	5052.85
2865.13	5038.24
2865.99	5028.88
2866.85	5034.95
2867.7	5041.03
2868.56	5046.39
2869.42	5056.43
2870.28	5053.95
2871.13	5045.4
2871.99	5033.7
2872.85	5023.17
2873.7	5016.61
2874.56	5008.74
2875.42	5003.94
2876.27	5001
2877.13	5000.38
2877.99	5004.84
2878.84	5015.33
2879.7	5030.92
2880.56	5052.56
2881.41	4959.64
2882.27	4972.96
2883.12	4965.29
2883.98	4959.72
2884.83	4952.53
2885.69	4945.47
2886.54	4936.79
2887.4	4930.38
2888.25	4928.12
2889.11	4928.18
2889.96	4930.17
2890.82	4928.42
2891.67	4913.14
2892.52	4905.17
2893.38	4898.3
2894.23	4891.58
2895.09	4888.51
2895.94	4887.42
2896.79	4888.59
2897.65	4891.29
2898.5	4895.2
2899.35	4898.52
2900.21	4892.59
2901.06	4881.56
2901.91	4865.89
2902.76	4847.22
2903.62	4830.27
2904.47	4816.54
2905.32	4805.12
2906.17	4795.96
2907.03	4788.79
2907.88	4784
2908.73	4780.97
2909.58	4783.04
2910.43	4787.24
2911.28	4793.56
2912.14	4798.12
2912.99	4797.93
2913.84	4795.98
2914.69	4790.89
2915.54	4783.87
2916.39	4775.99
2917.24	4767.75
2918.09	4760.85
2918.94	4753.12
2919.79	4745.92
2920.64	4738.89
2921.49	4732.34
2922.34	4726.59
2923.19	4722.57
2924.04	4722.04
2924.89	4720.85
2925.74	4719.45
2926.59	4717.4
2927.44	4713.9
2928.29	4709.77
2929.14	4704.52
2929.98	4698.48
2930.83	4691.21
2931.68	4683.05
2932.53	4673.86
2933.38	4664.77
2934.23	4658.82
2935.07	4657.79
2935.92	4656.28
2936.77	4656.72
2937.62	4658.95
2938.47	4659.87
2939.31	4658.89
2940.16	4651.01
2941.01	4642.46
2941.85	4632.61
2942.7	4622.63
2943.55	4610.52
2944.39	4601.67
2945.24	4588.58
2946.09	4582.23
2946.93	4574.88
2947.78	4575.38
2948.63	4578.28
2949.47	4581.16
2950.32	4579.89
2951.16	4577.15
2952.01	4572.1
2952.85	4565.92
2953.7	4555.38
2954.55	4544.12
2955.39	4532.82
2956.24	4521.97
2957.08	4515.05
2957.92	4508.24
2958.77	4510.64
2959.61	4514
2960.46	4516.43
2961.3	4518.46
2962.15	4518.87
2962.99	4523.93
2963.83	4527.82
2964.68	4520.77
2965.52	4508.35
2966.37	4495.79
2967.21	4482.52
2968.05	4468.51
2968.9	4465.36
2969.74	4464.71
2970.58	4466.42
2971.42	4469.33
2972.27	4467.35
2973.11	4465.42
2973.95	4463.55
2974.79	4461.45
2975.64	4459.14
2976.48	4455.91
2977.32	4451.78
2978.16	4447.58
2979	4443.67
2979.85	4440.68
2980.69	4437.18
2981.53	4432.26
2982.37	4424.33
2983.21	4417.93
2984.05	4412.92
2984.89	4408.92
2985.73	4405.81
2986.57	4403.22
2987.41	4400.9
2988.25	4398.86
2989.1	4396.33
2989.94	4392.81
2990.77	4386.55
2991.62	4384.36
2992.45	4382.42
2993.29	4380.98
2994.13	4379.42
2994.97	4376.33
2995.81	4369.48
2996.65	4362.4
2997.49	4354.43
2998.33	4347.8
2999.17	4335.72
