200.833	12709.6
202.102	12853.6
203.371	12829.7
204.639	12793.4
205.907	12813.8
207.175	12829.6
208.442	12845.2
209.71	12853.5
210.977	12857.8
212.244	12858.7
213.511	12862
214.777	12876.8
216.042	12892.1
217.309	12912
218.575	12942.7
219.84	12978.4
221.106	13012.1
222.371	13028.9
223.635	13044.2
224.9	13046.8
226.165	13056.2
227.429	13068.6
228.694	13077.1
229.956	13099.5
231.22	13139.1
232.484	13181.6
233.747	13220
235.011	13252.9
236.272	13279.9
237.535	13298.6
238.798	13306.5
240.06	13305.1
241.321	13308.1
242.583	13317.5
243.845	13380.1
245.105	13400.5
246.367	13405.7
247.628	13413.8
248.888	13423.3
250.149	13431.7
251.409	13443.6
252.67	13453.3
253.928	13476.5
255.189	13492.2
256.447	13503.2
257.707	13507.6
258.966	13513.9
260.224	13528.2
261.483	13544.2
262.742	13559.9
263.999	13579.1
265.257	13598.3
266.514	13617
267.772	13633.5
269.028	13647.7
270.286	13659.7
271.543	13668.9
272.799	13675.9
274.056	13680.6
275.311	13683.1
276.568	13683.5
277.823	13680.3
279.079	13695.7
280.333	13718.5
281.589	13749.9
282.843	13778.5
284.099	13771.9
285.352	13756.3
286.607	13738.3
287.86	13743.7
289.114	13759.4
290.368	13784.7
291.621	13835
292.875	13871.5
294.127	13909.1
295.38	13933.2
296.632	13936
297.884	13934.2
299.137	13928.4
300.388	13927.9
301.641	13928.7
302.891	13928.7
304.142	13929.3
305.394	13930.1
306.644	13931.5
307.894	13932.4
309.146	13934.6
310.395	13946.7
311.645	13959.5
312.895	13982.5
314.144	13995.8
315.393	14004.8
316.642	14017.4
317.892	14027.2
319.14	14035.7
320.388	14058.9
321.637	14072.7
322.885	14087.6
324.132	14098.6
325.38	14108.6
326.628	14122.1
327.875	14137.8
329.122	14156.6
330.368	14177.7
331.614	14204.7
332.862	14231.3
334.108	14215.8
335.353	14187.9
336.599	14172.6
337.844	14173.1
339.089	14225.9
340.335	14265.7
341.58	14303.9
342.824	14339.9
344.068	14362
345.312	14340.9
346.556	14330.3
347.8	14321.2
349.043	14313.9
350.286	14312.5
351.53	14312.1
352.774	14312.5
354.016	14315.4
355.259	14320
356.501	14324.6
357.743	14331.5
358.985	14333.3
360.227	14334.3
361.468	14329.8
362.709	14327.8
363.95	14324.9
365.191	14326.3
366.432	14337.6
367.672	14362.3
368.912	14394.6
370.152	14407
371.392	14408
372.632	14409.2
373.871	14396.4
375.11	14391.5
376.348	14392.8
377.587	14405.5
378.825	14418.9
380.064	14437.1
381.302	14467
382.54	14477.1
383.778	14478.9
385.016	14480.4
386.253	14482.5
387.489	14485.9
388.726	14497.3
389.963	14507.2
391.199	14518.9
392.436	14529.9
393.672	14543.9
394.907	14558.6
396.142	14565.3
397.378	14561.6
398.614	14557.1
399.849	14559.9
401.082	14565.2
402.317	14570.5
403.552	14577.1
404.786	14584.1
406.019	14592.3
407.253	14600.8
408.487	14609.6
409.721	14618.6
410.953	14628.2
412.186	14637.3
413.419	14646.6
414.651	14654.9
415.883	14652.1
417.116	14646.8
418.347	14653.9
419.579	14668.8
420.811	14666.3
422.041	14663.3
423.272	14658.3
424.504	14652.4
425.733	14645.2
426.964	14640.6
428.194	14639.7
429.424	14643.4
430.654	14651.8
431.883	14664.6
433.113	14681.4
434.341	14702.5
435.571	14723.4
436.799	14735.8
438.028	14737.4
439.257	14734.6
440.484	14733.2
441.713	14734.1
442.94	14745.9
444.168	14759
445.394	14769.5
446.622	14777.9
447.848	14777.1
449.076	14790.6
450.301	14806.3
451.528	14822.1
452.754	14835.9
453.979	14846.8
455.205	14854.7
456.43	14859.2
457.656	14859.9
458.88	14857.7
460.106	14851.8
461.33	14842.7
462.554	14830.9
463.779	14818.7
465.002	14813.4
466.225	14817
467.45	14865
468.672	14933.2
469.895	14776.8
471.119	14810.3
472.341	14840.3
473.563	14840.8
474.786	14839.1
476.008	14813.7
477.229	14785.6
478.452	14755.8
479.673	14751.6
480.894	14800
482.115	14806.5
483.337	14793.4
484.557	14791.4
485.777	14795.2
486.997	14799.5
488.218	14802.2
489.438	14802.5
490.657	14799.3
491.876	14795.4
493.096	14787.4
494.315	14777.6
495.533	14766.7
496.752	14756.1
497.97	14753.2
499.188	14762.2
500.407	14785.3
501.625	14809.6
502.842	14838.9
504.059	14780.8
505.276	14768.7
506.493	14783.1
507.71	14791.1
508.926	14796.6
510.142	14801.4
511.358	14805.9
512.575	14817
513.791	14827.8
515.006	14838.8
516.222	14847.4
517.437	14812.4
518.651	14777.6
519.866	14794.2
521.081	14811
522.295	14822.4
523.509	14828.7
524.723	14833.4
525.937	14837.5
527.15	14843.6
528.363	14853.4
529.576	14867.5
530.789	14891
532.002	14921.8
533.215	14948.9
534.426	14963.4
535.638	14941.9
536.85	14914.3
538.061	14936.3
539.273	14946.5
540.484	14952.6
541.695	14953.3
542.906	14950.5
544.117	14945.2
545.327	14937.7
546.537	14926.8
547.747	14916.8
548.957	14913.7
550.167	14916.8
551.377	14925.6
552.585	14946.6
553.794	14952.1
555.003	14958.1
556.212	14960.7
557.421	14954.1
558.628	14945.8
559.836	14941.3
561.044	14938.5
562.252	14936.4
563.458	14935.1
564.666	14934.7
565.873	14936.2
567.08	14939.6
568.286	14945.2
569.493	14954.5
570.699	14961.6
571.904	14958.3
573.111	14953.7
574.317	14948
575.521	14941.3
576.727	14933.6
577.932	14929.6
579.136	14926.7
580.341	14926.2
581.544	14939.6
582.749	14950.2
583.954	14958.4
585.156	14964.8
586.361	14971.5
587.563	14974.7
588.767	14973.4
589.97	14966.5
591.172	14955.7
592.375	14946.1
593.577	14941.5
594.78	14937.6
595.981	14934.6
597.183	14932.9
598.384	14931.9
599.586	14931.4
600.786	14930.2
601.988	14928.5
603.188	14926.2
604.389	14923.5
605.589	14920.4
606.79	14916.8
607.989	14912.6
609.188	14907.1
610.389	14896.2
611.587	14880.8
612.787	14864
613.986	14850.7
615.184	14840.2
616.383	14833.5
617.581	14824.2
618.78	14816.1
619.977	14805.4
621.174	14800.5
622.373	14812.1
623.57	14831.6
624.766	14851.5
625.964	14873.1
627.16	14829.1
628.356	14811.3
629.554	14791.4
630.749	14773.3
631.945	14758.4
633.14	14749.4
634.337	14747.4
635.532	14747.4
636.726	14735.9
637.921	14723.4
639.117	14708.7
640.311	14697.3
641.505	14688.7
642.699	14685.9
643.892	14704.5
645.087	14725
646.28	14733.1
647.473	14735.6
648.666	14731.5
649.859	14722.4
651.051	14710.8
652.245	14699.2
653.437	14705
654.629	14716.6
655.821	14754
657.012	14776.3
658.204	14787.1
659.395	14781.9
660.586	14777.6
661.777	14777
662.967	14776
664.158	14773.3
665.349	14772.3
666.539	14771
667.729	14771.2
668.919	14771.3
670.109	14771.2
671.298	14768.5
672.487	14755.7
673.676	14749.9
674.865	14750.1
676.053	14753.5
677.242	14766
678.43	14783.4
679.616	14805.9
680.804	14815
681.992	14822.7
683.179	14801.9
684.366	14776
685.554	14757.1
686.74	14744
687.927	14737.9
689.114	14732.5
690.3	14730.5
691.486	14732
692.671	14736.5
693.856	14742.5
695.042	14725.3
696.227	14697.4
697.413	14664.1
698.598	14653.6
699.781	14645.5
700.966	14639
702.15	14647.2
703.334	14656.5
704.518	14664.9
705.701	14674.8
706.885	14664.7
708.068	14649.2
709.252	14636.3
710.433	14625.6
711.616	14620.9
712.799	14617
713.98	14616.7
715.163	14620.7
716.345	14626
717.527	14632.1
718.707	14633.9
719.889	14634.5
721.071	14632.6
722.25	14631.8
723.432	14631.8
724.611	14631.2
725.792	14638
726.972	14642.9
728.151	14646.2
729.332	14643
730.512	14616.1
731.69	14585.5
732.87	14578.7
734.048	14638.6
735.227	14647.5
736.405	14653.8
737.584	14659.2
738.761	14663.1
739.94	14666
741.117	14668.4
742.295	14669.8
743.471	14670
744.649	14668.9
745.825	14665.4
747.003	14660.6
748.179	14655
749.356	14649.9
750.531	14656.1
751.708	14671.4
752.883	14690.3
754.059	14708.9
755.234	14713.1
756.409	14697.2
757.585	14682.3
758.759	14721.4
759.934	14747
761.108	14729
762.282	14683.2
763.456	14644.5
764.63	14632
765.803	14632.1
766.977	14631.1
768.15	14630.3
769.323	14622.8
770.496	14611.8
771.668	14598.4
772.841	14583.2
774.014	14567
775.185	14554.4
776.357	14556.9
777.528	14561.2
778.701	14563.3
779.872	14560.1
781.042	14553.8
782.213	14544.7
783.383	14530.7
784.555	14512.4
785.725	14491.3
786.895	14470.3
788.064	14457.3
789.234	14443.9
790.404	14432.4
791.573	14423.3
792.742	14416.2
793.911	14410.9
795.08	14407.2
796.248	14404.3
797.416	14402.7
798.584	14400.8
799.753	14401.1
800.921	14403.9
802.088	14408.5
803.256	14417.1
804.423	14426.5
805.59	14437
806.756	14429
807.923	14413.2
809.089	14397.1
810.256	14386.2
811.422	14371.5
812.587	14379.4
813.753	14391.5
814.918	14400.9
816.084	14410.2
817.249	14415.7
818.414	14415.7
819.578	14414
820.743	14409.9
821.907	14403.2
823.072	14394.1
824.236	14388.2
825.399	14398.8
826.562	14416.8
827.725	14446.1
828.889	14468
830.052	14500.4
831.215	14464.9
832.377	14475.7
833.54	14486.5
834.701	14491.6
835.863	14490.9
837.025	14487.5
838.187	14479.7
839.349	14469.6
840.51	14462
841.67	14454.2
842.831	14444.7
843.992	14434.6
845.153	14430.7
846.312	14431.9
847.473	14436.5
848.633	14437.7
849.793	14425.9
850.951	14414.2
852.111	14401.2
853.27	14387.6
854.428	14377.2
855.588	14375.2
856.747	14378.2
857.904	14386
859.063	14395.8
860.221	14415.2
861.378	14406.4
862.536	14382.1
863.694	14345.8
864.85	14310.6
866.008	14278.7
867.164	14262.8
868.321	14255.5
869.478	14258.3
870.633	14263
871.79	14285.3
872.945	14250.3
874.101	14236.6
875.256	14223.8
876.412	14216.1
877.566	14208.3
878.722	14197.8
879.876	14185.3
881.031	14170.4
882.185	14153.5
883.34	14134.4
884.493	14112.8
885.647	14089.4
886.8	14072.2
887.954	14082.2
889.107	14095.5
890.261	14104.6
891.413	14111.1
892.565	14114.4
893.718	14114.9
894.87	14111.8
896.023	14105.2
897.174	14094.4
898.326	14076.8
899.478	14066.2
900.629	14068.6
901.779	14070.6
902.931	14072.5
904.081	14074.6
905.231	14078
906.383	14083.6
907.532	14090.6
908.682	14099.2
909.831	14109.5
910.982	14121.2
912.131	14128.7
913.28	14128.4
914.429	14121.4
915.578	14119.6
916.727	14120.5
917.875	14122.3
919.023	14124.8
920.171	14127.6
921.32	14131
922.467	14135.2
923.614	14140
924.761	14145.3
925.908	14154
927.055	14161.7
928.203	14164
929.349	14149.8
930.496	14131.6
931.642	14107.3
932.787	14081.3
933.933	14064.3
935.079	14064.4
936.224	14079.7
937.369	14100.9
938.514	14129
939.659	14142.5
940.804	14140.6
941.948	14125.2
943.092	14114
944.236	14098.4
945.38	14080.5
946.524	14063.8
947.667	14047.2
948.811	14028.7
949.954	14009.6
951.097	13993.6
952.24	13983.3
953.383	13981
954.525	13984.7
955.667	14012.7
956.81	14023.3
957.952	14001.6
959.093	13988.8
960.235	13973.6
961.376	13958.1
962.516	13946.7
963.658	13936.6
964.798	13929.3
965.939	13923.9
967.08	13920.1
968.22	13917.7
969.359	13907.8
970.499	13905.2
971.639	13903.4
972.779	13901.5
973.918	13908.2
975.056	13904.3
976.195	13895.9
977.334	13886.8
978.473	13874.6
979.61	13863.5
980.749	13853.8
981.887	13857.8
983.024	13861.9
984.162	13861.1
985.3	13848.6
986.437	13839.9
987.573	13838.6
988.711	13840.7
989.848	13846
990.983	13851.1
992.12	13856.1
993.255	13854.8
994.392	13854.6
995.528	13852.3
996.662	13850.3
997.798	13847
998.933	13843.6
1000.07	13849.2
1001.2	13855.9
1002.34	13859.9
1003.47	13861.7
1004.61	13862.1
1005.74	13860
1006.87	13856
1008.01	13850.3
1009.14	13842.8
1010.27	13834.4
1011.41	13830.5
1012.54	13830
1013.67	13829.7
1014.81	13830.8
1015.94	13833.2
1017.07	13836.5
1018.2	13841.5
1019.33	13840.7
1020.47	13835.4
1021.6	13827.2
1022.73	13816.7
1023.86	13804.2
1024.99	13791.3
1026.12	13776.9
1027.25	13767.9
1028.38	13766.6
1029.51	13763
1030.64	13755.9
1031.77	13744.6
1032.9	13727.9
1034.03	13715.3
1035.16	13702.3
1036.29	13688.9
1037.42	13674.7
1038.55	13659.5
1039.67	13643.4
1040.8	13627.2
1041.93	13607.9
1043.06	13606.3
1044.19	13612
1045.31	13621.9
1046.44	13620.2
1047.57	13611.6
1048.69	13597.7
1049.82	13583.4
1050.95	13570.6
1052.08	13557.7
1053.2	13544.4
1054.33	13531
1055.45	13518.7
1056.58	13509.1
1057.7	13501.2
1058.83	13505.9
1059.95	13515.1
1061.08	13527.8
1062.2	13546.7
1063.33	13547.4
1064.45	13536.9
1065.58	13508.2
1066.7	13481.3
1067.83	13481.2
1068.95	13482
1070.07	13482.5
1071.2	13483.1
1072.32	13483.5
1073.44	13484.1
1074.56	13485.3
1075.69	13486.4
1076.81	13483.1
1077.93	13479
1079.05	13476.9
1080.17	13475.9
1081.3	13475.8
1082.42	13476.4
1083.54	13477.7
1084.66	13479.2
1085.78	13480.6
1086.9	13482
1088.02	13482
1089.14	13481.7
1090.26	13479.7
1091.38	13475.3
1092.5	13464.3
1093.62	13452.1
1094.74	13447.7
1095.86	13451.5
1096.98	13462.5
1098.1	13467.2
1099.22	13471.5
1100.34	13473.1
1101.45	13471
1102.57	13467.3
1103.69	13456.8
1104.81	13443.2
1105.93	13429.2
1107.04	13422.2
1108.16	13429.7
1109.28	13429.3
1110.4	13426.4
1111.51	13421
1112.63	13413.4
1113.75	13403.3
1114.86	13391.8
1115.98	13378.5
1117.09	13364.4
1118.21	13348.8
1119.32	13333.3
1120.44	13318.1
1121.55	13303.9
1122.67	13292
1123.78	13281.9
1124.9	13274.4
1126.01	13267
1127.13	13259.1
1128.24	13249.9
1129.35	13239.4
1130.47	13227.3
1131.58	13213
1132.7	13197.2
1133.81	13179
1134.92	13159
1136.03	13137.6
1137.15	13115
1138.26	13111.4
1139.37	13102
1140.48	13086.5
1141.59	13076.7
1142.71	13055.3
1143.82	13033.7
1144.93	13030.2
1146.04	13025.7
1147.15	13021.7
1148.26	13018
1149.37	13013.7
1150.48	13003.5
1151.59	12994.7
1152.7	12986.9
1153.81	12981.2
1154.92	12976.9
1156.03	12975
1157.14	12969.5
1158.25	12964
1159.36	12958.2
1160.47	12952.2
1161.58	12946
1162.68	12939.4
1163.79	12933.7
1164.9	12934.4
1166.01	12942
1167.12	12950.7
1168.22	12962.3
1169.33	12968.5
1170.44	12971.9
1171.55	12972.2
1172.65	12965.6
1173.76	12963.9
1174.87	12973.5
1175.97	12985.2
1177.08	12986.1
1178.18	12972.2
1179.29	12956
1180.4	12943.4
1181.5	12933.9
1182.61	12928.6
1183.71	12927.6
1184.82	12934.4
1185.92	12951.9
1187.02	12978.7
1188.13	12994.6
1189.23	12998.7
1190.34	13003.1
1191.44	12945.5
1192.54	12939.2
1193.65	12949.8
1194.75	12958.9
1195.85	12966.7
1196.96	12972
1198.06	12975
1199.16	12973.3
1200.26	12973.8
1201.37	12973.4
1202.47	12970.8
1203.57	12965.4
1204.67	12957.1
1205.77	12945.8
1206.87	12929.6
1207.97	12910.6
1209.08	12890.6
1210.18	12877
1211.28	12890.8
1212.38	12912.2
1213.48	12933.4
1214.58	12942.5
1215.68	12933.9
1216.78	12911
1217.88	12897.6
1218.98	12889.5
1220.07	12886.5
1221.17	12886.8
1222.27	12890.8
1223.37	12898.5
1224.47	12908.1
1225.57	12919.4
1226.66	12921.4
1227.76	12880.4
1228.86	12857.4
1229.96	12828
1231.06	12824.9
1232.15	12817.9
1233.25	12809.1
1234.35	12797.1
1235.44	12783.3
1236.54	12763.9
1237.63	12739.9
1238.73	12716
1239.83	12700.8
1240.92	12693.9
1242.02	12689
1243.11	12683.6
1244.21	12677.1
1245.3	12670.8
1246.4	12665.2
1247.49	12661.1
1248.59	12658
1249.68	12658.9
1250.78	12659.9
1251.87	12661.5
1252.96	12661.9
1254.06	12656.7
1255.15	12645.1
1256.24	12632.9
1257.34	12621.1
1258.43	12611.6
1259.52	12604
1260.62	12598.7
1261.71	12598.6
1262.8	12603.5
1263.89	12623.2
1264.98	12635.1
1266.08	12639.3
1267.17	12628.9
1268.26	12616.6
1269.35	12603.1
1270.44	12589.4
1271.53	12573.9
1272.62	12591.1
1273.71	12603.9
1274.8	12615.2
1275.89	12620.7
1276.98	12622.5
1278.07	12623.4
1279.16	12623.4
1280.25	12624.1
1281.34	12628.2
1282.43	12637.7
1283.52	12645.5
1284.61	12652.5
1285.69	12649.3
1286.78	12641.3
1287.87	12625.3
1288.96	12606.6
1290.05	12590.2
1291.13	12582.1
1292.22	12584
1293.31	12592.3
1294.4	12608.4
1295.48	12637.1
1296.57	12664.5
1297.66	12674.5
1298.74	12674.3
1299.83	12663.7
1300.92	12643.4
1302	12614.2
1303.09	12601.9
1304.17	12603.3
1305.26	12621.4
1306.34	12654.6
1307.43	12642.2
1308.51	12615.6
1309.6	12594.3
1310.68	12590.2
1311.76	12589.1
1312.85	12591
1313.93	12593.9
1315.02	12594.6
1316.1	12596.1
1317.18	12594.6
1318.27	12587.3
1319.35	12578.2
1320.43	12566.8
1321.52	12558.6
1322.6	12550
1323.68	12545.3
1324.76	12534.6
1325.85	12520.8
1326.93	12501.7
1328.01	12482.3
1329.09	12477.5
1330.17	12487
1331.25	12525.2
1332.33	12529.9
1333.41	12511.6
1334.49	12493.2
1335.58	12488.2
1336.65	12475.1
1337.74	12461.6
1338.82	12448.5
1339.89	12437.9
1340.97	12428.2
1342.05	12418.8
1343.13	12410.7
1344.21	12403.5
1345.29	12395.6
1346.37	12394.9
1347.45	12402.9
1348.53	12407.2
1349.6	12414.4
1350.68	12414.6
1351.76	12404.8
1352.84	12394.4
1353.92	12379.1
1354.99	12370.9
1356.07	12366.1
1357.15	12362.9
1358.22	12361.4
1359.3	12361.7
1360.38	12363.4
1361.45	12367.4
1362.53	12372.9
1363.61	12378.4
1364.68	12383.5
1365.76	12386.9
1366.83	12386
1367.91	12395
1368.98	12398.9
1370.06	12398.2
1371.13	12393.1
1372.21	12388.1
1373.28	12382.6
1374.35	12379.6
1375.43	12375.5
1376.5	12369.5
1377.58	12364.7
1378.65	12361.1
1379.72	12357.9
1380.8	12353.8
1381.87	12345.2
1382.94	12339.2
1384.01	12334
1385.09	12336.5
1386.16	12334.5
1387.23	12333.2
1388.3	12332.6
1389.38	12329.3
1390.45	12323.8
1391.52	12314.7
1392.59	12303.1
1393.66	12289.1
1393.92	12284.7
1395	12270.3
1396.07	12264.1
1397.15	12259.3
1398.22	12269.2
1399.3	12279.9
1400.38	12292.8
1401.45	12300.3
1402.53	12294
1403.6	12277.6
1404.68	12256
1405.75	12247
1406.82	12237.8
1407.9	12235
1408.97	12239.2
1410.05	12255.8
1411.12	12279.9
1412.19	12289.7
1413.27	12291.3
1414.34	12281.6
1415.41	12258.7
1416.49	12221.8
1417.56	12196.6
1418.63	12187.1
1419.7	12179.2
1420.78	12173.3
1421.85	12169
1422.92	12164
1423.99	12157.5
1425.06	12151.4
1426.14	12145.4
1427.21	12139
1428.28	12132.6
1429.35	12126.9
1430.42	12122.4
1431.49	12119.4
1432.56	12117.7
1433.63	12117.6
1434.7	12118
1435.77	12120.4
1436.84	12115.2
1437.91	12104.4
1438.98	12093.1
1440.05	12083.1
1441.12	12073.6
1442.18	12066.3
1443.25	12072.2
1444.32	12078
1445.39	12078.4
1446.46	12076.5
1447.53	12073.7
1448.59	12071.1
1449.66	12068.1
1450.73	12065.7
1451.8	12062.6
1452.86	12060.1
1453.93	12059.1
1455	12059.2
1456.06	12060.2
1457.13	12062.1
1458.2	12064.1
1459.26	12064.5
1460.33	12064
1461.39	12060.4
1462.46	12055.9
1463.52	12046.9
1464.59	12036.4
1465.65	12025.8
1466.72	12018.4
1467.78	12020.7
1468.85	12020.8
1469.91	12024.2
1470.98	12022.5
1472.04	12018.4
1473.1	12012.2
1474.17	12004.9
1475.23	11998
1476.3	11992.8
1477.36	11986.8
1478.42	11980.7
1479.48	11974.6
1480.55	11968.3
1481.61	11962.4
1482.67	11956.4
1483.73	11956
1484.8	11969.6
1485.86	11980
1486.92	11993
1487.98	11994.3
1489.04	11984.9
1490.1	11969
1491.17	11946.5
1492.23	11918.9
1493.29	11882
1494.35	11855.6
1495.41	11872.3
1496.47	11887.1
1497.53	11908.3
1498.59	11922.6
1499.65	11929.6
1500.71	11892.2
1501.77	11877
1502.83	11863.3
1503.88	11854.8
1504.94	11862.8
1506	11877
1507.06	11891.6
1508.12	11907.8
1509.18	11909.8
1510.23	11901.7
1511.29	11884.9
1512.35	11857.5
1513.41	11836.4
1514.47	11823.6
1515.52	11822.8
1516.58	11820.5
1517.64	11817.3
1518.69	11812.8
1519.75	11807.2
1520.81	11800.1
1521.86	11787.2
1522.92	11768.2
1523.97	11764.2
1525.03	11771
1526.08	11774.7
1527.14	11776.1
1528.2	11775.4
1529.25	11773.4
1530.31	11770.2
1531.36	11764.7
1532.42	11757.1
1533.47	11743.3
1534.52	11735.3
1535.58	11739.1
1536.63	11746.4
1537.69	11743.4
1538.74	11738.3
1539.79	11731.2
1540.84	11721.6
1541.9	11708.7
1542.95	11693.5
1544	11676.7
1545.06	11663
1546.11	11672.7
1547.16	11668.6
1548.21	11666.5
1549.27	11666.3
1550.32	11667.7
1551.37	11671.5
1552.42	11678
1553.47	11689.7
1554.52	11699.3
1555.57	11707.1
1556.62	11717
1557.67	11719.5
1558.72	11717.8
1559.77	11704.2
1560.82	11684.9
1561.87	11665.8
1562.92	11659.7
1563.97	11650.1
1565.02	11647.9
1566.07	11674.8
1567.12	11692.3
1568.17	11698.8
1569.22	11691.7
1570.27	11668.3
1571.32	11619.5
1572.36	11614.6
1573.41	11611.2
1574.46	11611.2
1575.51	11619
1576.56	11628.6
1577.6	11636.8
1578.65	11642.1
1579.7	11645.3
1580.74	11645.8
1581.79	11644.8
1582.84	11640.9
1583.88	11633.4
1584.93	11622.3
1585.98	11607.3
1587.02	11596.4
1588.07	11592.5
1589.11	11587.4
1590.16	11584.3
1591.2	11582.1
1592.25	11581.4
1593.29	11580.9
1594.34	11579.8
1595.38	11578.3
1596.43	11577.8
1597.47	11576.9
1598.52	11571
1599.56	11553.1
1600.6	11525.1
1601.65	11518.3
1602.69	11528.2
1603.73	11521.8
1604.78	11513
1605.82	11502.4
1606.86	11490.5
1607.91	11476.8
1608.95	11460.8
1609.99	11440
1611.03	11433.6
1612.08	11448.5
1613.12	11444.9
1614.16	11441.2
1615.2	11420.5
1616.24	11386.5
1617.28	11354
1618.32	11340.6
1619.36	11360.1
1620.41	11361.4
1621.45	11345.2
1622.49	11326.4
1623.53	11310.7
1624.57	11316.5
1625.61	11319.9
1626.65	11311.3
1627.69	11296.3
1628.73	11282.2
1629.76	11268.1
1630.8	11255.7
1631.84	11245.4
1632.88	11239.8
1633.92	11243.8
1634.96	11254.9
1636	11248.4
1637.03	11230.8
1638.07	11218.1
1639.11	11210.8
1640.15	11208.3
1641.19	11211.1
1642.22	11217.2
1643.26	11217
1644.3	11213.9
1645.33	11206.5
1646.37	11194.8
1647.41	11179.1
1648.44	11172.2
1649.48	11167
1650.52	11175.9
1651.55	11164.7
1652.59	11151.7
1653.62	11137.3
1654.66	11136
1655.69	11140.4
1656.73	11147
1657.76	11150.5
1658.8	11153.1
1659.83	11153
1660.87	11153.6
1661.9	11150.6
1662.93	11144.3
1663.97	11132.8
1665	11114.2
1666.04	11101
1667.07	11087.1
1668.1	11083.6
1669.14	11091.3
1670.17	11092.8
1671.2	11096.1
1672.23	11098.1
1673.27	11098.4
1674.3	11095.9
1675.33	11091
1676.36	11084.2
1677.39	11076.2
1678.43	11067.1
1679.46	11058
1680.49	11050.4
1681.52	11045.4
1682.55	11045.2
1683.58	11048.4
1684.61	11053.7
1685.64	11047.3
1686.67	11036.6
1687.7	11022.3
1688.73	11010.1
1689.76	11001.2
1690.79	10995.4
1691.82	10992.2
1692.85	10993.5
1693.88	10996.4
1694.91	10997.2
1695.94	10995.2
1696.97	10991.5
1698	10986.2
1699.02	10979
1700.05	10970.6
1701.08	10959.3
1702.11	10946.4
1703.14	10927.7
1704.16	10909.4
1705.19	10891.4
1706.22	10874.8
1707.25	10907.8
1708.27	11064.7
1709.3	10892.1
1710.33	10868.5
1711.35	10823.7
1712.38	10825.5
1713.41	10873.1
1714.43	10854
1715.46	10844.1
1716.48	10829.8
1717.51	10814.7
1718.53	10802
1719.56	10792
1720.58	10783.9
1721.61	10777.2
1722.63	10771.7
1723.66	10767.6
1724.68	10764.3
1725.71	10755.4
1726.73	10755.8
1727.75	10757.6
1728.78	10762
1729.8	10769.1
1730.83	10775
1731.85	10780.1
1732.87	10783.6
1733.89	10785
1734.92	10784.3
1735.94	10780.7
1736.96	10773.8
1737.98	10753.2
1739.01	10719.9
1740.03	10685.9
1741.05	10652.2
1742.07	10625.6
1743.09	10600.9
1744.12	10645.9
1745.14	10653.3
1746.16	10653.4
1747.18	10654
1748.2	10654.3
1749.22	10651.5
1750.24	10647.4
1751.26	10640.5
1752.28	10632.3
1753.3	10623
1754.32	10613.1
1755.34	10604.1
1756.36	10597.8
1757.38	10594.6
1758.4	10595.4
1759.42	10598.9
1760.44	10596.4
1761.45	10593.7
1762.47	10586.2
1763.49	10575.2
1764.51	10562
1765.53	10548.4
1766.55	10535.7
1767.56	10524.6
1768.58	10526
1769.6	10523.4
1770.61	10524.8
1771.63	10528.2
1772.65	10525.1
1773.67	10513.9
1774.68	10493
1775.7	10474
1776.72	10461
1777.73	10463.3
1778.75	10472.7
1779.76	10471.6
1780.78	10472.5
1781.79	10463.5
1782.81	10452.8
1783.83	10438.3
1784.84	10421.6
1785.85	10403.7
1786.87	10387.3
1787.88	10401.2
1788.9	10411.6
1789.91	10410.6
1790.93	10409.1
1791.94	10402.4
1792.95	10392
1793.97	10387.6
1794.98	10383.6
1796	10379.9
1797.01	10376.2
1798.02	10372.3
1799.03	10368.2
1800.05	10363.3
1801.06	10357.5
1802.07	10351.7
1803.08	10345.1
1804.1	10338
1805.11	10328.8
1806.12	10280.8
1807.13	10272.4
1808.14	10270.7
1809.15	10275.1
1810.17	10284.4
1811.18	10269
1812.19	10254.3
1813.2	10237.7
1814.21	10217.8
1815.22	10193.6
1816.23	10186.5
1817.24	10190.6
1818.25	10195.7
1819.26	10198.6
1820.27	10197.9
1821.28	10190
1822.29	10161.7
1823.3	10157.2
1824.3	10153
1825.31	10145.8
1826.32	10143.3
1827.33	10134.4
1828.34	10118.5
1829.35	10096.7
1830.35	10078.9
1831.36	10065.3
1832.37	10056.5
1833.38	10051.8
1834.38	10050.8
1835.39	10051.4
1836.4	10057.6
1837.41	10067.2
1838.41	10075.5
1839.42	10076.6
1840.43	10070.6
1841.43	10053.4
1842.44	10040
1843.44	10027
1844.45	10013.2
1845.46	10002.3
1846.46	9992.7
1847.47	9985.22
1848.47	9978.69
1849.48	9972.49
1850.48	9964.77
1851.49	9947.08
1852.49	9936.49
1853.49	9928.57
1854.5	9922.33
1855.5	9918.71
1856.51	9917.33
1857.51	9917.25
1858.51	9917.15
1859.52	9915.68
1860.52	9912.34
1861.52	9906.96
1862.53	9899.24
1863.53	9889.46
1864.53	9881.43
1865.54	9896.65
1866.54	9897.07
1867.54	9881.41
1868.54	9858.85
1869.54	9835.41
1870.55	9830.24
1871.55	9821.47
1872.55	9813.1
1873.55	9805.67
1874.55	9807.04
1875.55	9800.74
1876.55	9784.83
1877.55	9761.29
1878.55	9740.89
1879.55	9732.1
1880.56	9737.78
1881.55	9749.91
1882.56	9760.32
1883.55	9765.04
1884.55	9767.51
1885.55	9767.82
1886.55	9764.66
1887.55	9758.03
1888.55	9748.16
1889.55	9733.88
1890.55	9717.72
1891.55	9726.32
1892.55	9740.97
1893.54	9740.15
1894.54	9733.87
1895.54	9724.1
1896.54	9711.14
1897.54	9689.26
1898.53	9667.5
1899.53	9652.09
1900.53	9641.72
1901.52	9636.99
1902.52	9638.02
1903.52	9645.32
1904.51	9665.29
1905.51	9668.64
1906.51	9646.99
1907.5	9596.58
1908.5	9571.15
1909.49	9557.61
1910.49	9548.87
1911.49	9544.48
1912.48	9542.97
1913.48	9543.97
1914.47	9546.06
1915.46	9546.1
1916.46	9545.98
1917.45	9544.98
1918.45	9545.22
1919.44	9540.68
1920.44	9529.62
1921.43	9512.1
1922.43	9485.77
1923.42	9466.46
1924.41	9452.13
1925.41	9444.84
1926.4	9438.52
1927.39	9434.41
1928.38	9429.83
1929.38	9422.46
1930.37	9414.11
1931.36	9405.52
1932.35	9396.4
1933.35	9386.34
1934.34	9374.43
1935.33	9382.61
1936.32	9403.68
1937.31	9447.58
1938.3	9392.4
1939.29	9353.11
1940.29	9361.97
1941.28	9360.58
1942.27	9357.15
1943.26	9350.13
1944.25	9343.83
1945.24	9329.72
1946.23	9317.15
1947.22	9302.08
1948.21	9286.04
1949.2	9269.84
1950.19	9254.99
1951.18	9240.82
1952.17	9233.54
1953.16	9230.7
1954.14	9225.91
1955.13	9221.69
1956.12	9214.68
1957.11	9202.09
1958.1	9186.13
1959.09	9178.58
1960.07	9174.92
1961.06	9169.84
1962.05	9172.92
1963.04	9180.88
1964.02	9176.65
1965.01	9171.86
1966	9166.01
1966.99	9151.96
1967.97	9142.48
1968.96	9134.18
1969.95	9128.26
1970.93	9123.2
1971.92	9116.64
1972.9	9105.56
1973.89	9080.63
1974.88	9067.58
1975.86	9051.01
1976.85	9042.32
1977.83	9045.68
1978.82	9058.28
1979.8	9060.47
1980.79	9058.99
1981.77	9048.25
1982.76	9036
1983.74	9025.74
1984.72	9015.7
1985.71	9006.42
1986.69	8999.25
1987.67	8992.38
1988.66	8986.38
1989.64	8980.79
1990.62	8975.25
1991.61	8968.63
1992.59	8957.84
1993.57	8947.41
1994.56	8935.97
1995.54	8921.49
1996.52	8907.3
1997.5	8913.68
1998.49	8916.09
1999.47	8922.26
2000.45	8937.52
2001.43	8934.76
2002.41	8924.88
2003.39	8903.52
2004.38	8888.33
2005.36	8881.53
2006.34	8877.15
2007.32	8868.29
2008.3	8861.03
2009.28	8842.78
2010.26	8831.33
2011.24	8807.37
2012.22	8789
2013.2	8777.06
2014.18	8766.07
2015.16	8761.17
2016.14	8762.89
2017.12	8759.8
2018.1	8758.1
2019.07	8755.33
2020.05	8751.6
2021.03	8748.92
2022.01	8746.97
2022.99	8747.56
2023.97	8747.05
2024.95	8744.74
2025.92	8741.99
2026.9	8738.04
2027.88	8732.91
2028.86	8725.56
2029.83	8716.5
2030.81	8705.73
2031.79	8693.4
2032.76	8679.25
2033.74	8663.54
2034.72	8646.12
2035.69	8627.94
2036.67	8614.04
2037.65	8604.13
2038.62	8603.11
2039.6	8600.1
2040.57	8594.37
2041.55	8586.72
2042.52	8574.18
2043.5	8561.9
2044.47	8555.16
2045.45	8555.59
2046.42	8553.55
2047.4	8549.04
2048.37	8546.54
2049.35	8542.76
2050.32	8526.38
2051.29	8507.58
2052.27	8493.07
2053.24	8486.76
2054.21	8481.96
2055.19	8475.9
2056.16	8469.5
2057.13	8462.42
2058.11	8454.3
2059.08	8442.86
2060.05	8440.28
2061.02	8439.4
2062	8431.64
2062.97	8420.22
2063.94	8407.74
2064.91	8396.51
2065.89	8386.61
2066.86	8377.87
2067.83	8370.19
2068.8	8363.65
2069.77	8357.93
2070.74	8353.18
2071.71	8349.41
2072.68	8346.08
2073.65	8342.33
2074.62	8337.96
2075.59	8332.92
2076.56	8326.87
2077.53	8319.33
2078.5	8307.29
2079.47	8296.97
2080.44	8288.15
2081.41	8281.14
2082.38	8286.45
2083.35	8283.93
2084.32	8280.81
2085.29	8275.07
2086.26	8265.79
2087.23	8256.89
2088.19	8247.94
2089.16	8237.21
2090.13	8224.94
2091.1	8213.24
2092.07	8204.08
2093.03	8197.02
2094	8191.03
2094.97	8182.79
2095.94	8172.87
2096.9	8162.85
2097.87	8152.6
2098.84	8141.99
2099.8	8131.31
2100.77	8120.97
2101.74	8113.71
2102.7	8109.26
2103.67	8116.15
2104.63	8124.89
2105.6	8119.44
2106.56	8108.31
2107.53	8093.37
2108.49	8077.52
2109.46	8062.28
2110.42	8049.47
2111.39	8039.52
2112.35	8034.81
2113.32	8031.96
2114.28	8032.11
2115.25	8034.75
2116.21	8040.61
2117.17	8045.56
2118.14	8047.09
2119.1	8039.11
2120.07	8024.69
2121.03	8012.12
2121.99	8000.79
2122.96	7990.11
2123.92	7980.4
2124.88	7970.87
2125.84	7962.02
2126.81	7953.65
2127.77	7949.22
2128.73	7956.22
2129.69	7956.79
2130.65	7953.06
2131.62	7941.2
2132.58	7918.96
2133.54	7883.94
2134.5	7859.19
2135.46	7834.69
2136.42	7843
2137.38	7860.35
2138.34	7851.11
2139.3	7847.23
2140.26	7844.18
2141.22	7840.91
2142.18	7836.69
2143.14	7832.02
2144.1	7826.47
2145.06	7820.31
2146.02	7813.61
2146.98	7806.27
2147.94	7798.39
2148.9	7789.84
2149.86	7780.92
2150.82	7771.52
2151.78	7761.29
2152.74	7749.96
2153.69	7734.92
2154.65	7716.13
2155.61	7705.07
2156.57	7701.2
2157.53	7699.75
2158.48	7694.35
2159.44	7688.52
2160.4	7682.64
2161.36	7677.09
2162.31	7672.18
2163.27	7666.85
2164.23	7661.88
2165.18	7660.75
2166.14	7660.04
2167.1	7645.11
2168.05	7627.52
2169.01	7606.97
2169.96	7589.08
2170.92	7573.21
2171.88	7560.46
2172.83	7550.63
2173.79	7543.42
2174.74	7539.14
2175.7	7534.96
2176.65	7524.56
2177.6	7516.86
2178.56	7508.25
2179.51	7491.81
2180.47	7464.57
2181.42	7441.72
2182.38	7433.25
2183.33	7430.64
2184.28	7430.08
2185.24	7427.8
2186.19	7423.94
2187.14	7415.97
2188.1	7404.51
2189.05	7386.41
2190	7373.2
2190.96	7367.49
2191.91	7360.66
2192.86	7358.15
2193.81	7358.44
2194.76	7360.93
2195.72	7366.25
2196.67	7361.6
2197.62	7355.63
2198.57	7349.91
2199.52	7339.22
2200.47	7328.19
2201.43	7320.36
2202.38	7316.43
2203.33	7311.27
2204.28	7306.59
2205.23	7301.9
2206.18	7297.44
2207.13	7293.25
2208.08	7289.12
2209.03	7285.12
2209.98	7281.21
2210.93	7277.48
2211.88	7273.65
2212.83	7261.45
2213.78	7249.16
2214.73	7225.56
2215.67	7203.93
2216.62	7185.35
2217.57	7172.25
2218.52	7162.65
2219.47	7156.62
2220.42	7154.21
2221.37	7155.9
2222.31	7161.14
2223.26	7170.63
2224.21	7182.41
2225.16	7188.95
2226.1	7189.22
2227.05	7184.52
2228	7175.89
2228.94	7162.68
2229.89	7154.01
2230.84	7148.98
2231.78	7144.62
2232.73	7141.52
2233.68	7140.36
2234.62	7139.15
2235.57	7138.38
2236.51	7136.08
2237.46	7132.57
2238.41	7128.75
2239.35	7125.42
2240.3	7121.88
2241.24	7114.85
2242.19	7106.92
2243.13	7099.64
2244.07	7093.06
2245.02	7086.8
2245.96	7084.54
2246.91	7086.06
2247.85	7091.39
2248.8	7085.37
2249.74	7085.46
2250.68	7084.91
2251.63	7081.99
2252.57	7074.92
2253.51	7069.46
2254.46	7065.17
2255.4	7062.48
2256.34	7056.84
2257.28	7051.3
2258.23	7048.57
2259.17	7044.35
2260.11	7040.11
2261.05	7036.53
2262	7034.24
2262.94	7031.27
2263.88	7026.75
2264.82	7023.27
2265.76	7020.43
2266.7	7019.48
2267.64	7020.07
2268.58	7020.81
2269.53	7021.49
2270.47	7021.53
2271.41	7020.8
2272.35	7017.21
2273.29	7010.84
2274.23	7000.55
2275.17	6989.12
2276.11	6983.17
2277.05	6978.53
2277.99	6983.06
2278.93	6990.41
2279.86	6998.24
2280.8	7002.03
2281.74	6999.45
2282.68	6992.34
2283.62	6981.64
2284.56	6969.97
2285.5	6967.68
2286.44	6968.3
2287.37	6964.39
2288.31	6959.46
2289.25	6952.44
2290.19	6945.73
2291.12	6937.31
2292.06	6928.53
2293	6931.53
2293.94	6935.68
2294.87	6941.17
2295.81	6949.23
2296.75	6955.27
2297.68	6958.27
2298.62	6959.69
2299.55	6954.61
2300.49	6944.03
2301.43	6931.42
2302.36	6919.59
2303.3	6908.22
2304.23	6898.5
2305.17	6890.33
2306.1	6883.92
2307.04	6876.81
2307.98	6869.67
2308.91	6862.68
2309.84	6856.4
2310.78	6850.57
2311.71	6846.02
2312.65	6841.28
2313.58	6836.91
2314.52	6832.41
2315.45	6826.99
2316.38	6820.4
2317.32	6813.52
2317.72	6810.46
2318.66	6802.95
2319.6	6791.25
2320.54	6776.07
2321.48	6757.25
2322.41	6739
2323.35	6733.29
2324.29	6731.93
2325.23	6732.5
2326.16	6736.98
2327.1	6760.17
2328.04	6782.67
2328.97	6768.62
2329.91	6751.86
2330.85	6737.74
2331.78	6727.43
2332.72	6719.47
2333.66	6711.13
2334.59	6703.49
2335.53	6696.65
2336.46	6690.32
2337.4	6684.27
2338.33	6678.34
2339.27	6672.5
2340.2	6666.72
2341.14	6660.59
2342.07	6654.64
2343.01	6648.7
2343.94	6642.85
2344.88	6636.98
2345.81	6631.05
2346.75	6625.31
2347.68	6620.22
2348.61	6619.7
2349.55	6618.31
2350.48	6614.18
2351.41	6610.03
2352.35	6605.62
2353.28	6600.92
2354.21	6595.71
2355.15	6589.82
2356.08	6583.16
2357.01	6577.35
2357.94	6571.7
2358.88	6566.24
2359.81	6560.8
2360.74	6555.57
2361.67	6550.53
2362.6	6545.64
2363.54	6538.64
2364.47	6530.5
2365.4	6522.35
2366.33	6520.67
2367.26	6530.92
2368.19	6534.81
2369.12	6544.03
2370.05	6542.21
2370.98	6538.48
2371.91	6517.2
2372.84	6499.9
2373.77	6478.54
2374.7	6471.85
2375.63	6469.94
2376.56	6472.91
2377.49	6480.96
2378.42	6493.44
2379.35	6500.1
2380.28	6501.52
2381.21	6498.06
2382.14	6495.6
2383.07	6492.13
2384	6487.86
2384.92	6482.78
2385.85	6474.77
2386.78	6465.76
2387.71	6455.47
2388.64	6446.12
2389.56	6448.65
2390.49	6448.87
2391.42	6448.15
2392.35	6442.29
2393.27	6437.17
2394.2	6432.69
2395.13	6429.05
2396.05	6426.15
2396.98	6424.04
2397.91	6422.97
2398.83	6422.26
2399.76	6421.67
2400.69	6419.38
2401.61	6415.15
2402.54	6408.18
2403.46	6398.77
2404.39	6386.72
2405.31	6372.02
2406.24	6358.46
2407.17	6347.97
2408.09	6355.11
2409.01	6358.07
2409.94	6370.41
2410.86	6352.04
2411.79	6324.41
2412.71	6312.27
2413.64	6306.07
2414.56	6302.14
2415.49	6300.01
2416.41	6298.96
2417.33	6299.39
2418.26	6300.09
2419.18	6303.5
2420.1	6307.56
2421.03	6311.57
2421.95	6312.71
2422.87	6296.75
2423.79	6280.25
2424.72	6251.86
2425.64	6239.49
2426.56	6228.8
2427.48	6216.56
2428.41	6220.1
2429.33	6221.99
2430.25	6221.66
2431.17	6210.88
2432.09	6196.16
2433.01	6181
2433.93	6167.5
2434.86	6158.65
2435.78	6153.55
2436.7	6149.83
2437.62	6147.82
2438.54	6148.51
2439.46	6152.43
2440.38	6156.08
2441.3	6158.93
2442.22	6158.64
2443.14	6154.67
2444.06	6148.56
2444.98	6140.41
2445.9	6129.48
2446.82	6115.68
2447.73	6100.73
2448.65	6085.98
2449.57	6076.96
2450.49	6068.86
2451.41	6062.29
2452.33	6057.56
2453.25	6054.75
2454.17	6053.63
2455.08	6054.62
2456	6056.26
2456.92	6044.73
2457.84	6035.73
2458.75	6026.46
2459.67	6016.84
2460.59	6008.43
2461.51	6001.36
2462.42	5995.12
2463.34	5989.3
2464.26	5984.12
2465.17	5979.63
2466.09	5975.99
2467	5972.78
2467.92	5968.95
2468.84	5965.09
2469.75	5962.29
2470.67	5959.21
2471.58	5955.51
2472.5	5949.96
2473.42	5943.12
2474.33	5935.16
2475.25	5925.98
2476.16	5915.78
2477.08	5904.52
2477.99	5893.08
2478.9	5885.93
2479.82	5881.63
2480.73	5886.38
2481.65	5901.41
2482.56	5907.62
2483.47	5914.17
2484.39	5915.43
2485.3	5908.76
2486.22	5902.6
2487.13	5899.47
2488.04	5897.54
2488.96	5896.25
2489.87	5893.79
2490.78	5889.45
2491.69	5883.77
2492.61	5877.5
2493.52	5869.67
2494.43	5860.99
2495.34	5851.65
2496.25	5842.23
2497.17	5837.86
2498.08	5833.95
2498.99	5831.15
2499.9	5829.6
2500.81	5829.47
2501.72	5829.76
2502.63	5827.35
2503.55	5815.17
2504.46	5814.07
2505.37	5809
2506.28	5810.96
2507.19	5809.06
2508.1	5802.41
2509.01	5797.88
2509.92	5781.61
2510.83	5776.55
2511.74	5772.07
2512.65	5776.5
2513.56	5780.02
2514.47	5784.12
2515.37	5786.53
2516.28	5787.72
2517.19	5770.15
2518.1	5744.92
2519.01	5643.08
2519.92	5795.81
2520.83	5800.13
2521.73	5774.54
2522.64	5751.49
2523.55	5734.17
2524.46	5721.7
2525.37	5713.03
2526.27	5704.93
2527.18	5699.83
2528.09	5697.64
2529	5698.65
2529.9	5702.19
2530.81	5708.22
2531.72	5715.46
2532.62	5717.9
2533.53	5709.13
2534.44	5698
2535.34	5688.19
2536.25	5679.11
2537.15	5669.14
2538.06	5667.54
2538.96	5657.67
2539.87	5642.95
2540.78	5622.78
2541.68	5592.2
2542.59	5590.7
2543.49	5602.67
2544.4	5610.9
2545.3	5615.52
2546.21	5616.72
2547.11	5614.33
2548.01	5608.19
2548.92	5597.39
2549.82	5586.92
2550.73	5584.66
2551.63	5585.1
2552.53	5588.69
2553.44	5596.42
2554.34	5598.93
2555.24	5601.76
2556.15	5571.37
2557.05	5556.18
2557.95	5549.1
2558.86	5548.29
2559.76	5546.7
2560.66	5539.55
2561.56	5533.93
2562.46	5530.04
2563.37	5526.1
2564.27	5522.25
2565.17	5517.61
2566.07	5511.52
2566.97	5505.23
2567.88	5498.43
2568.78	5491.51
2569.68	5484.3
2570.58	5476.94
2571.48	5469.86
2572.38	5462.42
2573.28	5454.82
2574.18	5446.64
2575.08	5437.74
2575.98	5428.75
2576.88	5420.78
2577.78	5419.44
2578.68	5415.43
2579.58	5406.15
2580.48	5395.45
2581.38	5386.89
2582.28	5383.19
2583.18	5382.76
2584.08	5379.3
2584.98	5375.63
2585.88	5371.45
2586.77	5366.87
2587.67	5361.9
2588.57	5356.41
2589.47	5350.64
2590.37	5344.37
2591.27	5337.86
2592.16	5331.42
2593.06	5326.48
2593.96	5327.28
2594.86	5328.27
2595.75	5328.87
2596.65	5330.18
2597.55	5333.25
2598.45	5336.26
2599.34	5338.7
2600.24	5336.52
2601.13	5317.68
2602.03	5300.5
2602.93	5284.22
2603.82	5267.96
2604.72	5259.16
2605.62	5258.47
2606.51	5260.33
2607.41	5267.2
2608.3	5277.29
2609.2	5281.6
2610.09	5281.32
2610.99	5262.38
2611.88	5244.2
2612.78	5235.72
2613.67	5232.25
2614.57	5242.74
2615.46	5244.33
2616.36	5243.06
2617.25	5240.73
2618.14	5234.45
2619.04	5222.03
2619.93	5204.57
2620.83	5192.86
2621.72	5180.29
2622.61	5176.25
2623.5	5176.96
2624.4	5176.64
2625.29	5175.21
2626.18	5173.03
2627.08	5170.38
2627.97	5166.84
2628.86	5162.64
2629.75	5157.7
2630.65	5157.27
2631.54	5170.01
2632.43	5171.03
2633.32	5162.37
2634.21	5131.49
2635.11	5110.33
2636	5094.1
2636.89	5077.99
2637.78	5068.8
2638.67	5072.31
2639.56	5079.17
2640.45	5082.64
2641.34	5081.31
2642.23	5077.35
2643.12	5071.25
2644.01	5062.1
2644.9	5050.59
2645.79	5036.44
2646.68	5021.04
2647.57	5007.39
2648.46	4995.15
2649.35	4983.81
2650.24	4973.51
2651.13	4964.55
2652.02	4956.96
2652.91	4950.98
2653.8	4946.54
2654.69	4944.05
2655.58	4943.44
2656.46	4945.98
2657.35	4951.33
2658.24	4959.84
2659.13	4965.96
2660.02	4959.24
2660.9	4926.92
2661.79	4960.8
2662.68	4971.72
2663.57	4959.72
2664.45	4943.45
2665.34	4909.96
2666.23	4905.63
2667.11	4908.07
2668	4906.52
2668.89	4904.13
2669.77	4900.75
2670.66	4897
2671.55	4893.81
2672.43	4893.14
2673.32	4893.25
2674.21	4893.95
2675.09	4894.7
2675.98	4892.85
2676.86	4889.46
2677.75	4883.87
2678.63	4877.47
2679.52	4867.63
2680.4	4854.96
2681.29	4840.1
2682.17	4831.36
2683.06	4829.65
2683.94	4826.61
2684.82	4823.02
2685.71	4816.61
2686.59	4811.1
2687.48	4805.67
2688.36	4800.43
2689.24	4795.55
2690.13	4791.13
2691.01	4787.12
2691.89	4783.69
2692.78	4780.63
2693.66	4780.34
2694.54	4759.52
2695.43	4738.69
2696.31	4727.74
2697.19	4725.76
2698.07	4731.54
2698.96	4737.39
2699.84	4734.44
2700.72	4728.67
2701.6	4722.19
2702.48	4715.33
2703.36	4706.75
2704.25	4697.34
2705.13	4687.64
2706.01	4683.38
2706.89	4681.75
2707.77	4681.26
2708.65	4680.12
2709.53	4677.88
2710.41	4675.54
2711.29	4669.66
2712.17	4662.57
2713.05	4657.76
2713.93	4655.22
2714.81	4661.14
2715.69	4657.04
2716.57	4651.61
2717.45	4645.87
2718.33	4639.51
2719.21	4632.09
2720.09	4624.07
2720.97	4617.24
2721.85	4612.73
2722.73	4617.56
2723.61	4620.45
2724.48	4613.85
2725.36	4604.69
2726.24	4595.98
2727.12	4591
2728	4587.19
2728.88	4583.63
2729.75	4580.4
2730.63	4578.28
2731.51	4576.61
2732.39	4575.4
2733.26	4573.16
2734.14	4570.24
2735.02	4566.66
2735.89	4562.53
2736.77	4557.88
2737.65	4552.71
2738.52	4546.75
2739.4	4540.6
2740.28	4535.86
2741.15	4534.11
2742.03	4530.65
2742.9	4523.35
2743.78	4515.99
2744.65	4510.74
2745.53	4506.21
2746.41	4502.44
2747.28	4499.87
2748.16	4498.46
2749.03	4497.98
2749.91	4498.62
2750.78	4499.24
2751.66	4496.4
2752.53	4487.59
2753.4	4478.55
2754.28	4470.19
2755.15	4460.91
2756.02	4454.23
2756.9	4452.47
2757.77	4450.89
2758.65	4452.53
2759.52	4456.21
2760.39	4460.78
2761.27	4465.44
2762.14	4464
2763.01	4458.92
2763.88	4451.69
2764.76	4444.58
2765.63	4440.72
2766.5	4434.61
2767.37	4429.52
2768.25	4424.52
2769.12	4420.19
2769.99	4417.54
2770.86	4417.26
2771.73	4420.68
2772.61	4423.83
2773.48	4422.51
2774.35	4416.18
2775.22	4403.86
2776.09	4388.37
2776.96	4375.49
2777.83	4364.68
2778.7	4355.63
2779.57	4347.72
2780.44	4342.05
2781.31	4337.83
2782.18	4335.78
2783.05	4335.54
2783.92	4336.63
2784.79	4337.93
2785.66	4335.84
2786.53	4329.99
2787.4	4321.35
2788.27	4312.58
2789.14	4302.64
2790.01	4294.32
2790.88	4290.4
2791.75	4287.91
2792.62	4286.65
2793.48	4287.89
2794.35	4289.27
2795.22	4290.11
2796.09	4288.26
2796.96	4285.06
2797.82	4280.53
2798.69	4274.63
2799.56	4266.82
2800.43	4257.62
2801.29	4246.8
2802.16	4235.74
2803.03	4237.24
2803.9	4238.7
2804.76	4243.18
2805.63	4249.61
2806.5	4262.03
2807.36	4259.14
2808.23	4250.92
2809.09	4242.51
2809.96	4233.95
2810.83	4229.09
2811.69	4223.85
2812.56	4218.05
2813.42	4212.46
2814.29	4207.2
2815.15	4202.93
2816.02	4200.66
2816.88	4198.94
2817.75	4197.91
2818.61	4197.24
2819.48	4197.06
2820.34	4195.91
2821.21	4192.83
2822.07	4188.07
2822.94	4181.91
2823.8	4174.07
2824.66	4165.09
2825.53	4160.31
2826.39	4154.12
2827.26	4148.98
2828.12	4149.39
2828.98	4144.95
2829.85	4133
2830.71	4124.11
2831.57	4123.33
2832.43	4129.5
2833.3	4142.44
2834.16	4146.02
2835.02	4146.39
2835.88	4143.69
2836.75	4138.37
2837.61	4123.42
2838.47	4111.59
2839.33	4102.54
2840.19	4097.29
2841.06	4096.53
2841.92	4101.48
2842.78	4106.73
2843.64	4111.63
2844.5	4114.33
2845.36	4113.42
2846.22	4107.35
2847.08	4102.55
2847.94	4089.37
2848.81	4084.31
2849.67	4082.17
2850.53	4082.09
2851.39	4084.87
2852.25	4084.91
2853.11	4082.78
2853.97	4079.15
2854.82	4079.97
2855.68	4072.89
2856.54	4060.57
2857.4	4046.69
2858.26	4032.5
2859.12	4017.14
2859.98	4010.01
2860.84	4009.06
2861.7	4014.49
2862.56	4021.78
2863.41	4025.13
2864.27	4029.37
2865.13	4028.68
2865.99	4029.12
2866.85	4020.29
2867.7	4009.62
2868.56	4010.76
2869.42	4013.13
2870.28	4021.13
2871.13	4010.51
2871.99	3998.83
2872.85	3990.97
2873.7	3985.51
2874.56	3980.82
2875.42	3978.29
2876.27	3978.49
2877.13	3980.67
2877.99	3984.85
2878.84	3990.44
2879.7	3964.35
2880.56	3962.21
2881.41	3956.68
2882.27	3949.97
2883.12	3943.95
2883.98	3938.72
2884.83	3933.9
2885.69	3929.78
2886.54	3926.33
2887.4	3923.93
2888.25	3922.38
2889.11	3922.96
2889.96	3923.36
2890.82	3911.33
2891.67	3897.2
2892.52	3883.64
2893.38	3871
2894.23	3867.36
2895.09	3865.5
2895.94	3868.48
2896.79	3868.18
2897.65	3869.57
2898.5	3871.1
2899.35	3873.15
2900.21	3874.81
2901.06	3874.15
2901.91	3872.85
2902.76	3859.97
2903.62	3845.26
2904.47	3837.94
2905.32	3840.14
2906.17	3842.62
2907.03	3839.37
2907.88	3840.01
2908.73	3835.06
2909.58	3817.98
2910.43	3809.78
2911.28	3802.82
2912.14	3803.38
2912.99	3807.48
2913.84	3808.33
2914.69	3804.84
2915.54	3797.83
2916.39	3792.52
2917.24	3787.43
2918.09	3783.51
2918.94	3779.7
2919.79	3775.83
2920.64	3771.46
2921.49	3766.5
2922.34	3760.42
2923.19	3753.73
2924.04	3747.18
2924.89	3741.33
2925.74	3739.68
2926.59	3754.81
2927.44	3764.75
2928.29	3768.9
2929.14	3766.22
2929.98	3756.1
2930.83	3735.96
2931.68	3715.26
2932.53	3697.66
2933.38	3682.4
2934.23	3671.95
2935.07	3677.85
2935.92	3686.91
2936.77	3694.22
2937.62	3697.21
2938.47	3696.9
2939.31	3695.11
2940.16	3693.15
2941.01	3690.72
2941.85	3687.66
2942.7	3683.97
2943.55	3680.07
2944.39	3675.59
2945.24	3670.96
2946.09	3664.92
2946.93	3662.72
2947.78	3668.83
2948.63	3670.31
2949.47	3666.71
2950.32	3660.16
2951.16	3648.52
2952.01	3643.09
2952.85	3637.46
2953.7	3631.51
2954.55	3626.17
2955.39	3621.07
2956.24	3616.92
2957.08	3614.44
2957.92	3613.69
2958.77	3613.11
2959.61	3606.38
2960.46	3604.04
2961.3	3603.58
2962.15	3604.82
2962.99	3605.86
2963.83	3607.02
2964.68	3607.94
2965.52	3608.49
2966.37	3607.82
2967.21	3599.27
2968.05	3588.62
2968.9	3579.9
2969.74	3572.79
2970.58	3565.33
2971.42	3559.36
2972.27	3554.3
2973.11	3549.92
2973.95	3546.45
2974.79	3542.31
2975.64	3532.92
2976.48	3523.32
2977.32	3516.04
2978.16	3510.49
2979	3509.41
2979.85	3511.48
2980.69	3513.65
2981.53	3515.98
2982.37	3518.56
2983.21	3520.98
2984.05	3521.86
2984.89	3522.54
2985.73	3520.91
2986.57	3517.19
2987.41	3513.62
2988.25	3510.48
2989.1	3507.92
2989.94	3505.13
2990.77	3504.26
2991.62	3503.13
2992.45	3502.08
2993.29	3500.64
2994.13	3496.26
2994.97	3486.73
2995.81	3481.66
2996.65	3478.9
2997.49	3483.89
2998.33	3498.85
2999.17	3436.71
