200.833	19416.4
202.102	19466
203.371	19489.8
204.639	19486
205.907	19478.9
207.175	19474.7
208.442	19474.2
209.71	19477.3
210.977	19484.3
212.244	19495
213.511	19509.6
214.777	19527.7
216.042	19550
217.309	19576.6
218.575	19608.2
219.84	19646.2
221.106	19684.8
222.371	19717.2
223.635	19748.9
224.9	19781.1
226.165	19814.6
227.429	19846.5
228.694	19883.7
229.956	19932.4
231.22	19978.3
232.484	20023.8
233.747	20068.5
235.011	20111.7
236.272	20153.8
237.535	20192.2
238.798	20227.6
240.06	20259
241.321	20284.1
242.583	20308.3
243.845	20331
245.105	20349.3
246.367	20373.9
247.628	20399
248.888	20427.5
250.149	20460.8
251.409	20478.7
252.67	20493.5
253.928	20504.4
255.189	20511.5
256.447	20513.2
257.707	20513.8
258.966	20533.7
260.224	20547.6
261.483	20560.7
262.742	20569.4
263.999	20559.7
265.257	20568.8
266.514	20598.5
267.772	20649.2
269.028	20686.1
270.286	20715.2
271.543	20738.1
272.799	20755.4
274.056	20767.3
275.311	20773.6
276.568	20773.5
277.823	20776
279.079	20789.7
280.333	20821.3
281.589	20866.4
282.843	20923.3
284.099	20986.8
285.352	21025.8
286.607	21055.8
287.86	21078.8
289.114	21093.4
290.368	21100
291.621	21117.4
292.875	21136.7
294.127	21164.3
295.38	21187
296.632	21198
297.884	21199.3
299.137	21190.6
300.388	21180.8
301.641	21180.1
302.891	21176.5
304.142	21192
305.394	21207.9
306.644	21228.3
307.894	21267.7
309.146	21293.8
310.395	21300.9
311.645	21302.6
312.895	21308.7
314.144	21319.1
315.393	21334.2
316.642	21353.8
317.892	21374.8
319.14	21399.9
320.388	21428.4
321.637	21462.9
322.885	21470.3
324.132	21472.5
325.38	21474.1
326.628	21480.3
327.875	21491
329.122	21502.4
330.368	21518
331.614	21536.5
332.862	21560.2
334.108	21588.3
335.353	21622.7
336.599	21660.3
337.844	21688.1
339.089	21715.7
340.335	21740.3
341.58	21762
342.824	21779.4
344.068	21795.1
345.312	21809.5
346.556	21825.1
347.8	21840.3
349.043	21854.1
350.286	21865.5
351.53	21876
352.774	21883
354.016	21885.9
355.259	21884.4
356.501	21882.3
357.743	21881.5
358.985	21882.4
360.227	21885.9
361.468	21891.4
362.709	21898.4
363.95	21907.4
365.191	21915.8
366.432	21920.9
367.672	21922.7
368.912	21919.1
370.152	21914.1
371.392	21917.3
372.632	21914.1
373.871	21913.7
375.11	21932.4
376.348	21955
377.587	21976.1
378.825	21997.2
380.064	22017.7
381.302	22037.6
382.54	22058
383.778	22078.4
385.016	22100.3
386.253	22118.6
387.489	22109.2
388.726	22088.6
389.963	22085.7
391.199	22101.6
392.436	22136.8
393.672	22158.5
394.907	22177.7
396.142	22194.1
397.378	22206.5
398.614	22182
399.849	22185.8
401.082	22192.9
402.317	22211.6
403.552	22229
404.786	22247
406.019	22257.6
407.253	22267.8
408.487	22276.8
409.721	22284.4
410.953	22289.5
412.186	22293.8
413.419	22301.1
414.651	22324.5
415.883	22343
417.116	22373
418.347	22386.6
419.579	22391.2
420.811	22390.6
422.041	22377.7
423.272	22349.8
424.504	22342
425.733	22353.9
426.964	22363.6
428.194	22396.2
429.424	22429.7
430.654	22454.1
431.883	22467
433.113	22470.6
434.341	22466.3
435.571	22452.1
436.799	22441.5
438.028	22438
439.257	22439.8
440.484	22452.1
441.713	22489.9
442.94	22532.5
444.168	22570.5
445.394	22592.7
446.622	22592.6
447.848	22567.7
449.076	22547.5
450.301	22544
451.528	22544.1
452.754	22549.8
453.979	22564
455.205	22585.9
456.43	22604.9
457.656	22628
458.88	22632.3
460.106	22624.9
461.33	22623.1
462.554	22619.5
463.779	22620.8
465.002	22627.1
466.225	22637.8
467.45	22648.5
468.672	22658.5
469.895	22667.6
471.119	22668.6
472.341	22657
473.563	22661.7
474.786	22669.3
476.008	22673
477.229	22664.1
478.452	22644.6
479.673	22622.5
480.894	22600.8
482.115	22590.8
483.337	22588.2
484.557	22585.6
485.777	22578.2
486.997	22573.1
488.218	22567.6
489.438	22562.7
490.657	22557.1
491.876	22550.8
493.096	22546.2
494.315	22546.5
495.533	22560.9
496.752	22572
497.97	22578.3
499.188	22582.7
500.407	22587.8
501.625	22585.2
502.842	22581.8
504.059	22580.8
505.276	22580
506.493	22590.2
507.71	22603.5
508.926	22622.8
510.142	22644.3
511.358	22665.8
512.575	22686.7
513.791	22694.5
515.006	22701.9
516.222	22699.3
517.437	22677.4
518.651	22662.8
519.866	22653.5
521.081	22674.8
522.295	22702.9
523.509	22712.3
524.723	22716.6
525.937	22722.8
527.15	22729.2
528.363	22731.8
529.576	22749.8
530.789	22766.3
532.002	22785.4
533.215	22800
534.426	22806
535.638	22803.4
536.85	22792.5
538.061	22778.5
539.273	22783.3
540.484	22818.3
541.695	22904.6
542.906	22864.2
544.117	22846.5
545.327	22839.1
546.537	22831.4
547.747	22824
548.957	22820.9
550.167	22821.4
551.377	22825.7
552.585	22833
553.794	22842.8
555.003	22854.4
556.212	22850.2
557.421	22844.8
558.628	22829.6
559.836	22783.1
561.044	22808.7
562.252	22836.7
563.458	22862.2
564.666	22867.8
565.873	22870.1
567.08	22868.6
568.286	22867.1
569.493	22862.4
570.699	22855.2
571.904	22842.8
573.111	22831.2
574.317	22821.4
575.521	22816.4
576.727	22817.8
577.932	22822.8
579.136	22829.4
580.341	22837
581.544	22845.7
582.749	22854.2
583.954	22863.5
585.156	22873.3
586.361	22883.5
587.563	22894
588.767	22904.9
589.97	22915.8
591.172	22925.6
592.375	22918
593.577	22913
594.78	22912.2
595.981	22914.7
597.183	22917.5
598.384	22912.7
599.586	22906.6
600.786	22898.9
601.988	22889.4
603.188	22877.8
604.389	22864.5
605.589	22849.9
606.79	22835.1
607.989	22819.3
609.188	22803
610.389	22785.9
611.587	22768.4
612.787	22754.1
613.986	22746.1
615.184	22752.8
616.383	22754.7
617.581	22758.9
618.78	22759.7
619.977	22739.6
621.174	22715.9
622.373	22687.6
623.57	22656
624.766	22622.1
625.964	22598.5
627.16	22585
628.356	22575.5
629.554	22567.7
630.749	22561.2
631.945	22555.8
633.14	22551.3
634.337	22547.2
635.532	22543.4
636.726	22540
637.921	22536.5
639.117	22532.4
640.311	22527.5
641.505	22521.9
642.699	22538.6
643.892	22561.5
645.087	22578.5
646.28	22576
647.473	22517.5
648.666	22489.7
649.859	22470.6
651.051	22478.7
652.245	22547.9
653.437	22589.9
654.629	22617.2
655.821	22617
657.012	22607.8
658.204	22587.2
659.395	22557.9
660.586	22531
661.777	22532.2
662.967	22554.9
664.158	22573.9
665.349	22589.1
666.539	22617.6
667.729	22647.5
668.919	22668.7
670.109	22680.2
671.298	22672
672.487	22664.3
673.676	22649.3
674.865	22636.7
676.053	22624.6
677.242	22610.6
678.43	22609.3
679.616	22617
680.804	22632.2
681.992	22653.1
683.179	22656.3
684.366	22651.2
685.554	22637.1
686.74	22630.8
687.927	22625
689.114	22621.8
690.3	22618.4
691.486	22616.7
692.671	22610.2
693.856	22603
695.042	22591.6
696.227	22573
697.413	22554.9
698.598	22536.8
699.781	22516.4
700.966	22497.3
702.15	22491.2
703.334	22486
704.518	22519.5
705.701	22558.6
706.885	22564.3
708.068	22554.9
709.252	22518
710.433	22500.4
711.616	22486.5
712.799	22478
713.98	22467.5
715.163	22459.3
716.345	22453.2
717.527	22449.1
718.707	22446.9
719.889	22446.8
721.071	22448.7
722.25	22455.5
723.432	22467.3
724.611	22478
725.792	22477.1
726.972	22453.2
728.151	22448.7
729.332	22447.2
730.512	22452.4
731.69	22452.3
732.87	22447.3
734.048	22437.5
735.227	22430.1
736.405	22431.9
737.584	22441.4
738.761	22459.3
739.94	22492.7
741.117	22527.9
742.295	22542.8
743.471	22552.8
744.649	22553.7
745.825	22534.2
747.003	22505.9
748.179	22490.7
749.356	22485.8
750.531	22489.7
751.708	22501.2
752.883	22517.3
754.059	22524.2
755.234	22530.8
756.409	22535.2
757.585	22525.3
758.759	22496.5
759.934	22495.2
761.108	22504.4
762.282	22513.5
763.456	22531.1
764.63	22533
765.803	22525.6
766.977	22509.7
768.15	22486.4
769.323	22455
770.496	22419
771.668	22404.3
772.841	22391.7
774.014	22381.4
775.185	22371.8
776.357	22360.5
777.528	22350.4
778.701	22340.5
779.872	22330.2
781.042	22319.4
782.213	22308.1
783.383	22295.6
784.555	22282.1
785.725	22266.9
786.895	22251.2
788.064	22234.7
789.234	22217.5
790.404	22202.7
791.573	22187.1
792.742	22171.1
793.911	22161.3
795.08	22159.1
796.248	22170.4
797.416	22184
798.584	22201.1
799.753	22204.1
800.921	22167
802.088	22172.3
803.256	22180.6
804.423	22203.5
805.59	22226
806.756	22209.6
807.923	22193.3
809.089	22175
810.256	22156.9
811.422	22137.9
812.587	22120.8
813.753	22127.6
814.918	22135
816.084	22144.2
817.249	22154.2
818.414	22167
819.578	22180.7
820.743	22194.4
821.907	22202.2
823.072	22197.1
824.236	22197.3
825.399	22194.9
826.562	22194.1
827.725	22199.5
828.889	22211.7
830.052	22229.5
831.215	22243.4
832.377	22257.6
833.54	22259.2
834.701	22259.8
835.863	22257.4
837.025	22252.9
838.187	22245.6
839.349	22238.7
840.51	22236
841.67	22236.5
842.831	22242.7
843.992	22247.2
845.153	22247.9
846.312	22243.5
847.473	22235.8
848.633	22225.1
849.793	22211.4
850.951	22195
852.111	22175.5
853.27	22153.3
854.428	22128.5
855.588	22103.2
856.747	22078.8
857.904	22054.7
859.063	22036.4
860.221	22023.1
861.378	22019.4
862.536	22021.4
863.694	22020.2
864.85	22004.9
866.008	21984.4
867.164	21952.1
868.321	21934.4
869.478	21912.6
870.633	21903.5
871.79	21901.5
872.945	21896.9
874.101	21892.5
875.256	21877.4
876.412	21856.8
877.566	21833.9
878.722	21807.5
879.876	21778.2
881.031	21748.2
882.185	21751.2
883.34	21755.6
884.493	21760.3
885.647	21762.7
886.8	21747.8
887.954	21728.3
889.107	21705.5
890.261	21684.5
891.413	21665.4
892.565	21655.2
893.718	21651.8
894.87	21651.4
896.023	21654.1
897.174	21659.3
898.326	21665.5
899.478	21671.9
900.629	21681.1
901.779	21692.3
902.931	21706.2
904.081	21721.1
905.231	21736.6
906.383	21750.4
907.532	21756.9
908.682	21763.2
909.831	21767.1
910.982	21768.6
912.131	21768
913.28	21764.8
914.429	21759.6
915.578	21752.4
916.727	21743.6
917.875	21738.7
919.023	21750.2
920.171	21756.6
921.32	21759.1
922.467	21752.9
923.614	21745.4
924.761	21739.6
925.908	21737.2
927.055	21738.5
928.203	21741.9
929.349	21747.8
930.496	21756.4
931.642	21767.3
932.787	21780.8
933.933	21794.4
935.079	21797.7
936.224	21783.6
937.369	21738.7
938.514	21722.7
939.659	21703.4
940.804	21684
941.948	21666.9
943.092	21653.2
944.236	21642.2
945.38	21633.6
946.524	21626.4
947.667	21620.5
948.811	21618.5
949.954	21615.3
951.097	21591.8
952.24	21563.4
953.383	21553.3
954.525	21550
955.667	21548.8
956.81	21545.2
957.952	21540.5
959.093	21534.7
960.235	21528.7
961.376	21516.5
962.516	21504.4
963.658	21493.2
964.798	21484
965.939	21487.4
967.08	21483.6
968.22	21464.2
969.359	21427.5
970.499	21383.5
971.639	21343.5
972.779	21328.4
973.918	21330.1
975.056	21380.9
976.195	21408
977.334	21426
978.473	21434.5
979.61	21424.4
980.749	21410.2
981.887	21397.9
983.024	21390.5
984.162	21384.6
985.3	21381.1
986.437	21379.7
987.573	21381.6
988.711	21386.8
989.848	21393.9
990.983	21401.3
992.12	21404.6
993.255	21406.9
994.392	21407.2
995.528	21405.7
996.662	21402.9
997.798	21399.8
998.933	21396.9
1000.07	21395.7
1001.2	21395.8
1002.34	21396.7
1003.47	21396.1
1004.61	21395.4
1005.74	21394
1006.87	21392.1
1008.01	21389.8
1009.14	21387
1010.27	21383.2
1011.41	21379.9
1012.54	21380.7
1013.67	21402.9
1014.81	21408.4
1015.94	21411.9
1017.07	21400.3
1018.2	21377.2
1019.33	21346.8
1020.47	21316.2
1021.6	21297.5
1022.73	21282.2
1023.86	21279.6
1024.99	21297.6
1026.12	21305.1
1027.25	21308.7
1028.38	21306.2
1029.51	21297
1030.64	21278.8
1031.77	21251.1
1032.9	21210.8
1034.03	21166.1
1035.16	21142
1036.29	21130.5
1037.42	21123.2
1038.55	21111.8
1039.67	21099.9
1040.8	21087.3
1041.93	21074.1
1043.06	21066.9
1044.19	21037.7
1045.31	20992.3
1046.44	20971.1
1047.57	20975
1048.69	21000.9
1049.82	21005.7
1050.95	20983.9
1052.08	20958.3
1053.2	20926.9
1054.33	20906.2
1055.45	20886.5
1056.58	20869.5
1057.7	20856
1058.83	20845.7
1059.95	20839.6
1061.08	20838.6
1062.2	20840.3
1063.33	20841.7
1064.45	20841.6
1065.58	20841.1
1066.7	20840.4
1067.83	20839.6
1068.95	20838.5
1070.07	20837.8
1071.2	20853.9
1072.32	20869.2
1073.44	20872.1
1074.56	20855.7
1075.69	20825.1
1076.81	20797.5
1077.93	20780.7
1079.05	20799.7
1080.17	20812.7
1081.3	20818
1082.42	20821.3
1083.54	20825.5
1084.66	20830.1
1085.78	20834.5
1086.9	20836.7
1088.02	20833.7
1089.14	20822.5
1090.26	20836
1091.38	20856.7
1092.5	20870.1
1093.62	20877.8
1094.74	20885.5
1095.86	20881.5
1096.98	20847.1
1098.1	20825.8
1099.22	20790
1100.34	20758.9
1101.45	20755.6
1102.57	20759.2
1103.69	20777.5
1104.81	20786.8
1105.93	20788
1107.04	20781.7
1108.16	20766.3
1109.28	20764
1110.4	20752.4
1111.51	20742.9
1112.63	20735.6
1113.75	20731
1114.86	20711.3
1115.98	20667.1
1117.09	20671.4
1118.21	20663.5
1119.32	20641.2
1120.44	20630.9
1121.55	20590.1
1122.67	20567.2
1123.78	20546
1124.9	20535.7
1126.01	20522.5
1127.13	20524.5
1128.24	20519.2
1129.35	20498.5
1130.47	20476.1
1131.58	20454.6
1132.7	20431.4
1133.81	20408.4
1134.92	20385.1
1136.03	20361.2
1137.15	20337.1
1138.26	20312.8
1139.37	20288.3
1140.48	20263.9
1141.59	20239.7
1142.71	20222.9
1143.82	20210.6
1144.93	20209.9
1146.04	20207.8
1147.15	20182.4
1148.26	20143.9
1149.37	20116.6
1150.48	20096.3
1151.59	20078
1152.7	20068.2
1153.81	20065.7
1154.92	20068.5
1156.03	20076
1157.14	20084.3
1158.25	20092.2
1159.36	20084.2
1160.47	20074.6
1161.58	20060.7
1162.68	20042.7
1163.79	20020
1164.9	19994.2
1166.01	19979
1167.12	19969.5
1168.22	19972.6
1169.33	19994.1
1170.44	20017.2
1171.55	20040.5
1172.65	20056.2
1173.76	20053.8
1174.87	20036.8
1175.97	20016.7
1177.08	19993.9
1178.18	19989.1
1179.29	19987.3
1180.4	19986.9
1181.5	20004.7
1182.61	20023.2
1183.71	20039.7
1184.82	20054.3
1185.92	20066.8
1187.02	20076.6
1188.13	20083.9
1189.23	20088.1
1190.34	20089.1
1191.44	20085.8
1192.54	20089
1193.65	20095.9
1194.75	20099.8
1195.85	20104.3
1196.96	20081.3
1198.06	20056.7
1199.16	20029.6
1200.26	20015.7
1201.37	19999.3
1202.47	19987.3
1203.57	20009.6
1204.67	20030.3
1205.77	20043
1206.87	20051.9
1207.97	20054
1209.08	20051.3
1210.18	20040.1
1211.28	20025
1212.38	20005.8
1213.48	19985.3
1214.58	19996.6
1215.68	20000.7
1216.78	20019.9
1217.88	20045.3
1218.98	20051
1220.07	20030.7
1221.17	20001.3
1222.27	19980.7
1223.37	19960.9
1224.47	19937.2
1225.57	19922.1
1226.66	19907.9
1227.76	19901
1228.86	19894.4
1229.96	19886.8
1231.06	19877.2
1232.15	19860.8
1233.25	19846.2
1234.35	19830.2
1235.44	19814.4
1236.54	19798.7
1237.63	19786.4
1238.73	19771.5
1239.83	19751.4
1240.92	19728.8
1242.02	19704.5
1243.11	19686.3
1244.21	19669.8
1245.3	19656
1246.4	19645.5
1247.49	19637.4
1248.59	19633.1
1249.68	19631.6
1250.78	19632.9
1251.87	19636.1
1252.96	19628.1
1254.06	19622.4
1255.15	19613
1256.24	19601.6
1257.34	19591.6
1258.43	19591.6
1259.52	19606.3
1260.62	19611.6
1261.71	19611.8
1262.8	19611.7
1263.89	19609.7
1264.98	19603.6
1266.08	19596.3
1267.17	19587.3
1268.26	19577.2
1269.35	19567.4
1270.44	19557.8
1271.53	19553
1272.62	19547.8
1273.71	19551.1
1274.8	19564.9
1275.89	19587.7
1276.98	19606.7
1278.07	19622.7
1279.16	19638.2
1280.25	19649.8
1281.34	19647.8
1282.43	19634.6
1283.52	19599.3
1284.61	19552.8
1285.69	19534.6
1286.78	19550.3
1287.87	19599.3
1288.96	19583.4
1290.05	19546.1
1291.13	19521.7
1292.22	19559.6
1293.31	19615.3
1294.4	19620.2
1295.48	19619.7
1296.57	19612.5
1297.66	19602
1298.74	19588.8
1299.83	19579.7
1300.92	19578.4
1302	19586.2
1303.09	19602.1
1304.17	19609
1305.26	19613.6
1306.34	19613.1
1307.43	19607.3
1308.51	19596.1
1309.6	19579.7
1310.68	19578.4
1311.76	19579.2
1312.85	19580.4
1313.93	19570.6
1315.02	19557.5
1316.1	19545.1
1317.18	19526.6
1318.27	19514
1319.35	19505.8
1320.43	19502.6
1321.52	19500.7
1322.6	19496.9
1323.68	19492.5
1324.76	19486.9
1325.85	19480
1326.93	19471.4
1328.01	19459.8
1329.09	19443.2
1330.17	19430.1
1331.25	19408.3
1332.33	19387.8
1333.41	19374.2
1334.49	19362.7
1335.58	19350.1
1336.65	19333.5
1337.74	19315.3
1338.82	19297.7
1339.89	19287.6
1340.97	19284.9
1342.05	19284.3
1343.13	19281.9
1344.21	19280.2
1345.29	19283.4
1346.37	19285.3
1347.45	19282.9
1348.53	19278.9
1349.6	19272.8
1350.68	19270
1351.76	19270.1
1352.84	19270.7
1353.92	19263.4
1354.99	19251.8
1356.07	19235.9
1357.15	19221.4
1358.22	19207.8
1359.3	19202.3
1360.38	19209.9
1361.45	19220.4
1362.53	19232.1
1363.61	19244
1364.68	19249.6
1365.76	19244.1
1366.83	19235.6
1367.91	19225.9
1368.98	19218.2
1370.06	19214.9
1371.13	19214.8
1372.21	19216.9
1373.28	19221.3
1374.35	19227.1
1375.43	19232.5
1376.5	19237.9
1377.58	19229.8
1378.65	19218.6
1379.72	19206.6
1380.8	19192
1381.87	19189.9
1382.94	19201
1384.01	19211.1
1385.09	19217.5
1386.16	19219.8
1387.23	19218.4
1388.3	19213.2
1389.38	19203.9
1390.45	19190.2
1391.52	19170.4
1392.59	19150.6
1393.66	19142.9
1393.92	19141
1395	19151.8
1396.07	19149.8
1397.15	19136.6
1398.22	19112.6
1399.3	19079
1400.38	19061
1401.45	19049.5
1402.53	19043.2
1403.6	19054.7
1404.68	19071.5
1405.75	19060.6
1406.82	19036.3
1407.9	19009.7
1408.97	18995.2
1410.05	18990.3
1411.12	18998.8
1412.19	19008.7
1413.27	19015.7
1414.34	19019.2
1415.41	19019.7
1416.49	19012.4
1417.56	18980
1418.63	18948.7
1419.7	18933.8
1420.78	18929.1
1421.85	18956.4
1422.92	18944.4
1423.99	18919
1425.06	18893.5
1426.14	18866.4
1427.21	18845.5
1428.28	18840.4
1429.35	18842.4
1430.42	18849.7
1431.49	18848.3
1432.56	18847.7
1433.63	18846.3
1434.7	18849.6
1435.77	18852.7
1436.84	18853.1
1437.91	18844.1
1438.98	18829.8
1440.05	18820.8
1441.12	18814
1442.18	18809.6
1443.25	18807.5
1444.32	18807.8
1445.39	18810.4
1446.46	18816.2
1447.53	18823.8
1448.59	18815
1449.66	18795.4
1450.73	18762.1
1451.8	18708
1452.86	18650.8
1453.93	18697.2
1455	18723
1456.06	18765.3
1457.13	18816.5
1458.2	18853.7
1459.26	18810.7
1460.33	18790.9
1461.39	18769.4
1462.46	18747.7
1463.52	18730.4
1464.59	18720
1465.65	18714.4
1466.72	18712.9
1467.78	18715.6
1468.85	18719
1469.91	18711.1
1470.98	18698.7
1472.04	18676.7
1473.1	18655.9
1474.17	18644.2
1475.23	18650.3
1476.3	18657.6
1477.36	18665.4
1478.42	18673
1479.48	18678.7
1480.55	18683
1481.61	18683.9
1482.67	18680.2
1483.73	18671.1
1484.8	18681.7
1485.86	18687.9
1486.92	18687.7
1487.98	18681.2
1489.04	18665.6
1490.1	18645.3
1491.17	18623.9
1492.23	18600.1
1493.29	18577.8
1494.35	18565.3
1495.41	18572
1496.47	18578.7
1497.53	18592.7
1498.59	18598.3
1499.65	18595
1500.71	18583.7
1501.77	18567.3
1502.83	18533.2
1503.88	18520.1
1504.94	18507.8
1506	18496.8
1507.06	18484.8
1508.12	18469.3
1509.18	18454.4
1510.23	18439.1
1511.29	18423.4
1512.35	18407.4
1513.41	18390
1514.47	18372.4
1515.52	18343.7
1516.58	18313.4
1517.64	18320.8
1518.69	18330.3
1519.75	18340.4
1520.81	18348
1521.86	18350.4
1522.92	18349.4
1523.97	18345.8
1525.03	18338.3
1526.08	18327.4
1527.14	18312.3
1528.2	18294.3
1529.25	18261.6
1530.31	18208
1531.36	18209
1532.42	18221.2
1533.47	18245.8
1534.52	18277.4
1535.58	18288.3
1536.63	18292
1537.69	18252.4
1538.74	18240.4
1539.79	18232.3
1540.84	18220.4
1541.9	18221.7
1542.95	18225.1
1544	18224.7
1545.06	18219.2
1546.11	18208.1
1547.16	18194.5
1548.21	18179
1549.27	18159.8
1550.32	18157.9
1551.37	18151.1
1552.42	18158.9
1553.47	18174.3
1554.52	18184.8
1555.57	18191
1556.62	18192.4
1557.67	18190.4
1558.72	18187.2
1559.77	18180.8
1560.82	18169.6
1561.87	18155.5
1562.92	18135.9
1563.97	18116.8
1565.02	18124.9
1566.07	18141.6
1567.12	18145.1
1568.17	18138
1569.22	18125.6
1570.27	18115
1571.32	18103.4
1572.36	18102.9
1573.41	18120.4
1574.46	18140.6
1575.51	18152.3
1576.56	18160.4
1577.6	18159.4
1578.65	18141.4
1579.7	18109.1
1580.74	18086.1
1581.79	18050.7
1582.84	18020.9
1583.88	17976.7
1584.93	17949
1585.98	17961.1
1587.02	17986.5
1588.07	18020.4
1589.11	18052.3
1590.16	18035
1591.2	18028
1592.25	18018.6
1593.29	18008.5
1594.34	17996.7
1595.38	17984.1
1596.43	17971.2
1597.47	17960.4
1598.52	17955.4
1599.56	17949.3
1600.6	17942.5
1601.65	17934.8
1602.69	17925.8
1603.73	17915.1
1604.78	17901.2
1605.82	17883.9
1606.86	17863.3
1607.91	17853.3
1608.95	17852.4
1609.99	17841.5
1611.03	17829.1
1612.08	17815.5
1613.12	17798.2
1614.16	17773
1615.2	17748.4
1616.24	17724.3
1617.28	17699.9
1618.32	17681.7
1619.36	17672.1
1620.41	17658.7
1621.45	17649
1622.49	17629.2
1623.53	17609.9
1624.57	17593.5
1625.61	17594.6
1626.65	17590.3
1627.69	17591.6
1628.73	17591.8
1629.76	17570.9
1630.8	17550.3
1631.84	17529.6
1632.88	17508.5
1633.92	17481.9
1634.96	17472.3
1636	17466.9
1637.03	17462
1638.07	17454.3
1639.11	17438.7
1640.15	17414.3
1641.19	17380
1642.22	17380
1643.26	17433.2
1644.3	17435
1645.33	17445.7
1646.37	17439.8
1647.41	17421.4
1648.44	17396.5
1649.48	17377.4
1650.52	17363.5
1651.55	17353
1652.59	17344.7
1653.62	17339.4
1654.66	17337.5
1655.69	17338.4
1656.73	17341.3
1657.76	17344
1658.8	17331.5
1659.83	17315.1
1660.87	17303.1
1661.9	17294.4
1662.93	17281
1663.97	17271.4
1665	17268.4
1666.04	17275.4
1667.07	17282.3
1668.1	17277.3
1669.14	17267.1
1670.17	17255.3
1671.2	17241.1
1672.23	17226.9
1673.27	17214.6
1674.3	17205.3
1675.33	17198.5
1676.36	17193.2
1677.39	17189.8
1678.43	17188.1
1679.46	17188.7
1680.49	17190.1
1681.52	17186.8
1682.55	17173.9
1683.58	17146.9
1684.61	17122.1
1685.64	17112.3
1686.67	17085.9
1687.7	17083.6
1688.73	17096.3
1689.76	17109.2
1690.79	17115.7
1691.82	17120.3
1692.85	17105.6
1693.88	17082.1
1694.91	17047.4
1695.94	17019.1
1696.97	17020.4
1698	17016.2
1699.02	17001.4
1700.05	16986.5
1701.08	16975.4
1702.11	16965.9
1703.14	16956
1704.16	16951.9
1705.19	16947.2
1706.22	16950.8
1707.25	16953.3
1708.27	16953.4
1709.3	16947.2
1710.33	16927.4
1711.35	16909
1712.38	16887
1713.41	16859.6
1714.43	16832.1
1715.46	16812.4
1716.48	16794.7
1717.51	16784.9
1718.53	16784.7
1719.56	16791.2
1720.58	16800.6
1721.61	16791.7
1722.63	16786.5
1723.66	16777.7
1724.68	16760.4
1725.71	16742.1
1726.73	16724.2
1727.75	16708.7
1728.78	16690.5
1729.8	16677.6
1730.83	16663.9
1731.85	16652.7
1732.87	16643.7
1733.89	16633.4
1734.92	16616.8
1735.94	16582
1736.96	16552.9
1737.98	16538.5
1739.01	16542.7
1740.03	16564
1741.05	16573.3
1742.07	16576.6
1743.09	16558.2
1744.12	16548.7
1745.14	16535.5
1746.16	16523.8
1747.18	16514.5
1748.2	16506
1749.22	16499.9
1750.24	16494.3
1751.26	16489.6
1752.28	16482.8
1753.3	16460.3
1754.32	16447.2
1755.34	16442.9
1756.36	16443.7
1757.38	16436
1758.4	16410.8
1759.42	16384.9
1760.44	16365
1761.45	16338.1
1762.47	16317.8
1763.49	16306.1
1764.51	16304.8
1765.53	16302
1766.55	16320.2
1767.56	16326.1
1768.58	16324.4
1769.6	16321.2
1770.61	16309.9
1771.63	16292.9
1772.65	16277.7
1773.67	16259.8
1774.68	16241.8
1775.7	16223.2
1776.72	16204.1
1777.73	16184.1
1778.75	16167.4
1779.76	16153
1780.78	16155.5
1781.79	16155.6
1782.81	16163.6
1783.83	16155.5
1784.84	16147.2
1785.85	16139.6
1786.87	16132.8
1787.88	16126.4
1788.9	16125.9
1789.91	16124.2
1790.93	16124.8
1791.94	16125.8
1792.95	16128.8
1793.97	16117.9
1794.98	16088.9
1796	16067
1797.01	16047.6
1798.02	16030.7
1799.03	16017.1
1800.05	16005.1
1801.06	15995.7
1802.07	15989.2
1803.08	15986
1804.1	15984.9
1805.11	15982.9
1806.12	15974.8
1807.13	15966.2
1808.14	15955.8
1809.15	15943.3
1810.17	15929.1
1811.18	15913.2
1812.19	15895.4
1813.2	15876.7
1814.21	15856.1
1815.22	15834.2
1816.23	15811
1817.24	15796.3
1818.25	15792.1
1819.26	15783.2
1820.27	15756.4
1821.28	15567.4
1822.29	15692.3
1823.3	15740.3
1824.3	15744.9
1825.31	15722.6
1826.32	15697.1
1827.33	15692.6
1828.34	15678.1
1829.35	15664
1830.35	15646.3
1831.36	15627.3
1832.37	15609.9
1833.38	15597.3
1834.38	15603.7
1835.39	15608.9
1836.4	15611.6
1837.41	15612.7
1838.41	15609.8
1839.42	15580.8
1840.43	15545.5
1841.43	15515.9
1842.44	15492.4
1843.44	15471.5
1844.45	15453.1
1845.46	15439.2
1846.46	15428.3
1847.47	15420.5
1848.47	15413.9
1849.48	15386.8
1850.48	15376.2
1851.49	15380.1
1852.49	15386.3
1853.49	15395.7
1854.5	15400.6
1855.5	15396.9
1856.51	15383.3
1857.51	15369.7
1858.51	15348.9
1859.52	15325.7
1860.52	15306.4
1861.52	15290.5
1862.53	15285
1863.53	15277.3
1864.53	15264.5
1865.54	15253.2
1866.54	15243.1
1867.54	15234.3
1868.54	15226.8
1869.54	15220.4
1870.55	15215.4
1871.55	15211.4
1872.55	15208.3
1873.55	15204.4
1874.55	15195.5
1875.55	15157
1876.55	15138.8
1877.55	15127.9
1878.55	15121.5
1879.55	15111.3
1880.56	15118.5
1881.55	15111
1882.56	15095.2
1883.55	15077.1
1884.55	15055.9
1885.55	15030.6
1886.55	15012.8
1887.55	15002
1888.55	15006.2
1889.55	15011.6
1890.55	15011.7
1891.55	15009.3
1892.55	15003.8
1893.54	14996.4
1894.54	14983.6
1895.54	14966.2
1896.54	14944.3
1897.54	14918.7
1898.53	14888.9
1899.53	14869.1
1900.53	14856
1901.52	14863.2
1902.52	14875.2
1903.52	14883
1904.51	14875.8
1905.51	14846.8
1906.51	14827.4
1907.5	14807.8
1908.5	14787.1
1909.49	14766.7
1910.49	14745.6
1911.49	14729.4
1912.48	14716.7
1913.48	14708.6
1914.47	14700
1915.46	14687.9
1916.46	14675.1
1917.45	14662.8
1918.45	14648
1919.44	14633.3
1920.44	14618.4
1921.43	14613
1922.43	14629.3
1923.42	14623.5
1924.41	14606.9
1925.41	14579.1
1926.4	14562.6
1927.39	14550.7
1928.38	14543.2
1929.38	14546.2
1930.37	14550.2
1931.36	14551.1
1932.35	14548.1
1933.35	14528.1
1934.34	14505.2
1935.33	14475.8
1936.32	14441.1
1937.31	14401.1
1938.3	14364.8
1939.29	14359.6
1940.29	14366.1
1941.28	14365.4
1942.27	14357.7
1943.26	14350.3
1944.25	14331.8
1945.24	14298.3
1946.23	14287.9
1947.22	14290.5
1948.21	14295.7
1949.2	14299.2
1950.19	14290.3
1951.18	14275.2
1952.17	14257.1
1953.16	14238.9
1954.14	14220.3
1955.13	14207.5
1956.12	14197.1
1957.11	14187.9
1958.1	14180.1
1959.09	14173.5
1960.07	14167.7
1961.06	14162.7
1962.05	14158
1963.04	14153.1
1964.02	14147.1
1965.01	14138.7
1966	14128.4
1966.99	14108
1967.97	14088.3
1968.96	14065.6
1969.95	14040.7
1970.93	14016.8
1971.92	13994.1
1972.9	13988.5
1973.89	13982.2
1974.88	13973.8
1975.86	13964
1976.85	13952.2
1977.83	13939.7
1978.82	13914.9
1979.8	13893
1980.79	13877.6
1981.77	13867.6
1982.76	13864.4
1983.74	13861.8
1984.72	13857.3
1985.71	13852
1986.69	13846.5
1987.67	13840.6
1988.66	13832.1
1989.64	13818.9
1990.62	13799.9
1991.61	13776.7
1992.59	13768
1993.57	13761.6
1994.56	13757
1995.54	13751.9
1996.52	13745.2
1997.5	13738.5
1998.49	13730.8
1999.47	13723.2
2000.45	13714.6
2001.43	13704.6
2002.41	13690.8
2003.39	13665.7
2004.38	13644.6
2005.36	13625
2006.34	13610.9
2007.32	13596.7
2008.3	13608.2
2009.28	13625.6
2010.26	13622.5
2011.24	13583
2012.22	13454.3
2013.2	13528
2014.18	13541.4
2015.16	13547
2016.14	13527.4
2017.12	13514.6
2018.1	13502.2
2019.07	13490.9
2020.05	13480.9
2021.03	13470.6
2022.01	13464.4
2022.99	13460.7
2023.97	13457.8
2024.95	13440.2
2025.92	13414.4
2026.9	13398.5
2027.88	13390.4
2028.86	13390.8
2029.83	13398.5
2030.81	13390.9
2031.79	13375.3
2032.76	13358.9
2033.74	13322.9
2034.72	13278.3
2035.69	13242.4
2036.67	13213.1
2037.65	13193.6
2038.62	13188.5
2039.6	13199.4
2040.57	13208.9
2041.55	13219.8
2042.52	13229.2
2043.5	13226.2
2044.47	13210.7
2045.45	13180.7
2046.42	13145.8
2047.4	13106.7
2048.37	13082.1
2049.35	13065.5
2050.32	13051.7
2051.29	13040.3
2052.27	13038
2053.24	13035.6
2054.21	13033.1
2055.19	13025.4
2056.16	13002.4
2057.13	12978.9
2058.11	12953.5
2059.08	12940.4
2060.05	12928.3
2061.02	12920.7
2062	12908.8
2062.97	12897.2
2063.94	12882.2
2064.91	12866.3
2065.89	12849.6
2066.86	12832.6
2067.83	12816.4
2068.8	12805.3
2069.77	12801.9
2070.74	12799.3
2071.71	12799.1
2072.68	12802.3
2073.65	12787
2074.62	12763.2
2075.59	12726.4
2076.56	12702.2
2077.53	12692.2
2078.5	12685.6
2079.47	12681.3
2080.44	12670.4
2081.41	12630.1
2082.38	12602.6
2083.35	12626.7
2084.32	12639.2
2085.29	12641.6
2086.26	12632.2
2087.23	12620.8
2088.19	12606.1
2089.16	12584.6
2090.13	12565.4
2091.1	12550.6
2092.07	12536.1
2093.03	12522.7
2094	12509.7
2094.97	12497.9
2095.94	12487.1
2096.9	12478.4
2097.87	12477.1
2098.84	12474.7
2099.8	12477.2
2100.77	12464.2
2101.74	12441
2102.7	12411.3
2103.67	12392.9
2104.63	12378.4
2105.6	12365.1
2106.56	12360.2
2107.53	12363.1
2108.49	12351.9
2109.46	12335
2110.42	12312.7
2111.39	12288.1
2112.35	12268.8
2113.32	12265.1
2114.28	12273
2115.25	12271.7
2116.21	12268.5
2117.17	12260.8
2118.14	12250.9
2119.1	12232.3
2120.07	12213.3
2121.03	12194
2121.99	12175.4
2122.96	12162.3
2123.92	12150.2
2124.88	12140
2125.84	12131.6
2126.81	12125.1
2127.77	12120.8
2128.73	12118.6
2129.69	12118.4
2130.65	12119.9
2131.62	12109.7
2132.58	12094.9
2133.54	12071.5
2134.5	12051.4
2135.46	12028.5
2136.42	12009.3
2137.38	11992.6
2138.34	11981
2139.3	11967.6
2140.26	11957.8
2141.22	11947.2
2142.18	11932.3
2143.14	11922.1
2144.1	11900
2145.06	11875.7
2146.02	11857.4
2146.98	11841.1
2147.94	11840.2
2148.9	11873.5
2149.86	11928.2
2150.82	11902.5
2151.78	11851
2152.74	11810.2
2153.69	11805.1
2154.65	11793.8
2155.61	11786.3
2156.57	11780.7
2157.53	11777.7
2158.48	11775.1
2159.44	11755.3
2160.4	11731.5
2161.36	11709.7
2162.31	11692.6
2163.27	11677.8
2164.23	11664.6
2165.18	11653.9
2166.14	11645.2
2167.1	11638.8
2168.05	11633.6
2169.01	11624.5
2169.96	11609
2170.92	11580.1
2171.88	11550.9
2172.83	11511.2
2173.79	11468.6
2174.74	11440.4
2175.7	11426
2176.65	11415.1
2177.6	11400.4
2178.56	11393.7
2179.51	11390.7
2180.47	11373.3
2181.42	11355.5
2182.38	11331.6
2183.33	11305.2
2184.28	11299.8
2185.24	11298.6
2186.19	11321.5
2187.14	11309.1
2188.1	11292.2
2189.05	11264.3
2190	11229.7
2190.96	11230.2
2191.91	11242.4
2192.86	11222.6
2193.81	11191.6
2194.76	11167
2195.72	11155.3
2196.67	11142.6
2197.62	11130.4
2198.57	11120.1
2199.52	11111.8
2200.47	11106.5
2201.43	11102
2202.38	11098.5
2203.33	11092.3
2204.28	11078.7
2205.23	11063.1
2206.18	11045.3
2207.13	11025.5
2208.08	11003.7
2209.03	10982.9
2209.98	10969.6
2210.93	10975.2
2211.88	10974.6
2212.83	10970.9
2213.78	10964.5
2214.73	10956.9
2215.67	10948.2
2216.62	10938.1
2217.57	10927.5
2218.52	10917.7
2219.47	10911.5
2220.42	10907.3
2221.37	10903.7
2222.31	10899.8
2223.26	10896.5
2224.21	10892
2225.16	10887.5
2226.1	10881.2
2227.05	10872.3
2228	10861
2228.94	10845.8
2229.89	10834.3
2230.84	10824.4
2231.78	10816.2
2232.73	10808.3
2233.68	10802.8
2234.62	10798
2235.57	10794
2236.51	10789.8
2237.46	10783.7
2238.41	10776
2239.35	10767.4
2240.3	10757.1
2241.24	10745.1
2242.19	10733.2
2243.13	10722.4
2244.07	10715.9
2245.02	10715.9
2245.96	10720
2246.91	10720.8
2247.85	10717.4
2248.8	10710
2249.74	10703.3
2250.68	10696.2
2251.63	10689.2
2252.57	10682.7
2253.51	10677.5
2254.46	10672.8
2255.4	10665.8
2256.34	10660
2257.28	10653.9
2258.23	10650.6
2259.17	10660.2
2260.11	10676.3
2261.05	10675.2
2262	10644.2
2262.94	10634.1
2263.88	10622
2264.82	10609
2265.76	10604.2
2266.7	10603.8
2267.64	10604.4
2268.58	10604.9
2269.53	10604.1
2270.47	10601.9
2271.41	10598.3
2272.35	10592.9
2273.29	10585.8
2274.23	10576.9
2275.17	10567
2276.11	10557.8
2277.05	10550.7
2277.99	10545.7
2278.93	10545
2279.86	10544
2280.8	10543
2281.74	10534
2282.68	10519.9
2283.62	10510.5
2284.56	10505.2
2285.5	10504.5
2286.44	10507
2287.37	10512.3
2288.31	10518.3
2289.25	10520.2
2290.19	10505.6
2291.12	10483.1
2292.06	10463.8
2293	10452.5
2293.94	10450.3
2294.87	10451
2295.81	10455.7
2296.75	10464.5
2297.68	10479.3
2298.62	10457.3
2299.55	10443
2300.49	10438.7
2301.43	10433.4
2302.36	10424.5
2303.3	10414.4
2304.23	10402.3
2305.17	10388.8
2306.1	10377.1
2307.04	10367.2
2307.98	10358.8
2308.91	10353
2309.84	10348.7
2310.78	10346.1
2311.71	10345.3
2312.65	10346.2
2313.58	10339.8
2314.52	10324.6
2315.45	10304.3
2316.38	10279.6
2317.32	10255
2317.72	10245.1
2318.66	10226.7
2319.6	10214.3
2320.54	10205.9
2321.48	10215.9
2322.41	10222.1
2323.35	10214.9
2324.29	10210.6
2325.23	10194.8
2326.16	10169
2327.1	10152.7
2328.04	10147.5
2328.97	10151.5
2329.91	10162.3
2330.85	10168.4
2331.78	10168.6
2332.72	10159.1
2333.66	10153.8
2334.59	10122.4
2335.53	10098.7
2336.46	10082.5
2337.4	10073.6
2338.33	10071.1
2339.27	10073.6
2340.2	10070.1
2341.14	10062.1
2342.07	10050.6
2343.01	10037.8
2343.94	10025.1
2344.88	10018.2
2345.81	10013.2
2346.75	10011.9
2347.68	10012.9
2348.61	10014.6
2349.55	10015
2350.48	10002.6
2351.41	9986.06
2352.35	9969.04
2353.28	9950.47
2354.21	9937.37
2355.15	9926.25
2356.08	9922.44
2357.01	9925.29
2357.94	9933.56
2358.88	9940.09
2359.81	9940.2
2360.74	9928.61
2361.67	9911.67
2362.6	9900.94
2363.54	9894.11
2364.47	9886.93
2365.4	9881.36
2366.33	9876.71
2367.26	9873.13
2368.19	9870.23
2369.12	9867.01
2370.05	9862.25
2370.98	9856.73
2371.91	9850.71
2372.84	9844.06
2373.77	9836.77
2374.7	9828.94
2375.63	9820.69
2376.56	9815.46
2377.49	9815.92
2378.42	9816.97
2379.35	9815.73
2380.28	9811.3
2381.21	9803.71
2382.14	9793.93
2383.07	9781.88
2384	9767.38
2384.92	9750
2385.85	9730.29
2386.78	9725.68
2387.71	9720.78
2388.64	9715.9
2389.56	9710.2
2390.49	9701.03
2391.42	9692.47
2392.35	9676.48
2393.27	9665.06
2394.2	9657.96
2395.13	9657.32
2396.05	9665.44
2396.98	9682.61
2397.91	9689.23
2398.83	9687.27
2399.76	9681.13
2400.69	9665.56
2401.61	9648.44
2402.54	9620.03
2403.46	9602.33
2404.39	9590.75
2405.31	9581.99
2406.24	9586.29
2407.17	9588.41
2408.09	9588.74
2409.01	9587.25
2409.94	9584.83
2410.86	9578.68
2411.79	9569.93
2412.71	9557.89
2413.64	9542.97
2414.56	9529.25
2415.49	9518.17
2416.41	9506.77
2417.33	9496.54
2418.26	9487.11
2419.18	9478.88
2420.1	9472.37
2421.03	9467.46
2421.95	9464.37
2422.87	9460.13
2423.79	9453.76
2424.72	9445.43
2425.64	9436.01
2426.56	9424.96
2427.48	9412.05
2428.41	9397.36
2429.33	9380.43
2430.25	9361.57
2431.17	9346.1
2432.09	9332.32
2433.01	9323.76
2433.93	9316.54
2434.86	9316.88
2435.78	9308.57
2436.7	9296.18
2437.62	9284.57
2438.54	9268.15
2439.46	9259.63
2440.38	9259.28
2441.3	9261.88
2442.22	9254.87
2443.14	9248.58
2444.06	9239.08
2444.98	9225.39
2445.9	9210.57
2446.82	9195.14
2447.73	9179.23
2448.65	9165.57
2449.57	9162.39
2450.49	9158.91
2451.41	9157.5
2452.33	9160.36
2453.25	9162.71
2454.17	9149.75
2455.08	9129.05
2456	9099.64
2456.92	9075.63
2457.84	9058.26
2458.75	9046.74
2459.67	9041.24
2460.59	9041.45
2461.51	9042.6
2462.42	9042.86
2463.34	9041.99
2464.26	9039.09
2465.17	9035.41
2466.09	9017.7
2467	8978.21
2467.92	8961.81
2468.84	8965.78
2469.75	8982.14
2470.67	9001.69
2471.58	9009.32
2472.5	8994.2
2473.42	8919.59
2474.33	8937.49
2475.25	8942.5
2476.16	8936.11
2477.08	8929.48
2477.99	8917.96
2478.9	8897.63
2479.82	8886.15
2480.73	8875
2481.65	8865.62
2482.56	8858.41
2483.47	8854.32
2484.39	8852.48
2485.3	8854.72
2486.22	8858.86
2487.13	8863.81
2488.04	8866.26
2488.96	8864.08
2489.87	8858.54
2490.78	8851.2
2491.69	8841.3
2492.61	8830.65
2493.52	8817.38
2494.43	8809.79
2495.34	8801.22
2496.25	8788.7
2497.17	8795.92
2498.08	8803.42
2498.99	8803.34
2499.9	8796.58
2500.81	8783.91
2501.72	8768.69
2502.63	8753.94
2503.55	8741.38
2504.46	8736.48
2505.37	8740.85
2506.28	8740.02
2507.19	8741.8
2508.1	8734.69
2509.01	8728.6
2509.92	8721.47
2510.83	8713.78
2511.74	8707.12
2512.65	8699.99
2513.56	8693.93
2514.47	8687.05
2515.37	8679.32
2516.28	8670.2
2517.19	8657.13
2518.1	8648.27
2519.01	8639.44
2519.92	8634.5
2520.83	8637.36
2521.73	8642.49
2522.64	8649.26
2523.55	8655.82
2524.46	8663.09
2525.37	8658.34
2526.27	8644.4
2527.18	8628.4
2528.09	8614.57
2529	8602.61
2529.9	8590.19
2530.81	8580.55
2531.72	8572.57
2532.62	8566.66
2533.53	8562.48
2534.44	8560.37
2535.34	8560.5
2536.25	8562.41
2537.15	8560.01
2538.06	8551.02
2538.96	8536.37
2539.87	8520.64
2540.78	8501.73
2541.68	8485.47
2542.59	8473.01
2543.49	8464.43
2544.4	8459
2545.3	8456.25
2546.21	8454.89
2547.11	8447.97
2548.01	8440.75
2548.92	8432.54
2549.82	8423.42
2550.73	8413.14
2551.63	8401.82
2552.53	8394.04
2553.44	8400.49
2554.34	8405.11
2555.24	8399.51
2556.15	8382.1
2557.05	8363.48
2557.95	8344.44
2558.86	8325.55
2559.76	8306.73
2560.66	8294.32
2561.56	8289.64
2562.46	8295.13
2563.37	8284.37
2564.27	8263.32
2565.17	8247.31
2566.07	8231.08
2566.97	8220.05
2567.88	8213.95
2568.78	8213.12
2569.68	8217.82
2570.58	8224.33
2571.48	8214.15
2572.38	8196.56
2573.28	8175.11
2574.18	8163.15
2575.08	8153.78
2575.98	8148.4
2576.88	8141.16
2577.78	8132.15
2578.68	8122.94
2579.58	8115.09
2580.48	8106.24
2581.38	8104.34
2582.28	8105.36
2583.18	8115.61
2584.08	8121.24
2584.98	8126.91
2585.88	8111.53
2586.77	8088.18
2587.67	8062.87
2588.57	8048.63
2589.47	8039.95
2590.37	8034.75
2591.27	8034.92
2592.16	8036.01
2593.06	8034.29
2593.96	8028.82
2594.86	8008.72
2595.75	7990.83
2596.65	7984.57
2597.55	7979.9
2598.45	7981.24
2599.34	7982.84
2600.24	7982.68
2601.13	7978.22
2602.03	7963.94
2602.93	7952.88
2603.82	7944.55
2604.72	7938.37
2605.62	7933.91
2606.51	7920.1
2607.41	7905.5
2608.3	7886.68
2609.2	7866.55
2610.09	7853.99
2610.99	7846.46
2611.88	7844.86
2612.78	7848.2
2613.67	7857.8
2614.57	7852.53
2615.46	7844.69
2616.36	7833.22
2617.25	7818.34
2618.14	7809.3
2619.04	7804.31
2619.93	7802.99
2620.83	7802.88
2621.72	7802.83
2622.61	7801.42
2623.5	7798.53
2624.4	7793.83
2625.29	7786.37
2626.18	7775.52
2627.08	7761.7
2627.97	7746.22
2628.86	7732.42
2629.75	7721.55
2630.65	7714.63
2631.54	7709.77
2632.43	7703.1
2633.32	7695.39
2634.21	7681
2635.11	7664.41
2636	7646.91
2636.89	7629.5
2637.78	7614.74
2638.67	7616.87
2639.56	7601.5
2640.45	7575.25
2641.34	7551.39
2642.23	7533.61
2643.12	7552.73
2644.01	7555
2644.9	7550.93
2645.79	7550.06
2646.68	7527.03
2647.57	7517.4
2648.46	7507.82
2649.35	7497.47
2650.24	7487.84
2651.13	7487.01
2652.02	7479.56
2652.91	7472.06
2653.8	7463.45
2654.69	7454.44
2655.58	7444.6
2656.46	7434.27
2657.35	7423.31
2658.24	7412.54
2659.13	7405.65
2660.02	7400.19
2660.9	7396
2661.79	7393.26
2662.68	7391.27
2663.57	7389.41
2664.45	7385.66
2665.34	7380.21
2666.23	7372.74
2667.11	7366.14
2668	7359.33
2668.89	7352.72
2669.77	7346.33
2670.66	7341.59
2671.55	7340.47
2672.43	7343.26
2673.32	7351.03
2674.21	7356.15
2675.09	7349.39
2675.98	7330.97
2676.86	7301.18
2677.75	7239.99
2678.63	7207.92
2679.52	7217.02
2680.4	7218.96
2681.29	7222.35
2682.17	7228.36
2683.06	7233.08
2683.94	7228.98
2684.82	7223.3
2685.71	7215.56
2686.59	7205.69
2687.48	7193.94
2688.36	7179.35
2689.24	7162.68
2690.13	7142.46
2691.01	7124.15
2691.89	7127.14
2692.78	7130.12
2693.66	7130.97
2694.54	7128.03
2695.43	7122.06
2696.31	7114.08
2697.19	7105.4
2698.07	7097.33
2698.96	7090.76
2699.84	7086.41
2700.72	7084.35
2701.6	7087.72
2702.48	7084.33
2703.36	7077.46
2704.25	7065.76
2705.13	7048.6
2706.01	7027.13
2706.89	7013.09
2707.77	7000.75
2708.65	6998.83
2709.53	6985.97
2710.41	6973.61
2711.29	6961.76
2712.17	6953.76
2713.05	6949.93
2713.93	6949.76
2714.81	6952.11
2715.69	6958.15
2716.57	6967.55
2717.45	6981.72
2718.33	6959.17
2719.21	6935.81
2720.09	6913.67
2720.97	6898.53
2721.85	6887.41
2722.73	6883.94
2723.61	6894.68
2724.48	6908.16
2725.36	6916.59
2726.24	6919.72
2727.12	6913.3
2728	6900.34
2728.88	6882.61
2729.75	6861.6
2730.63	6850.57
2731.51	6836.59
2732.39	6822.55
2733.26	6810.36
2734.14	6799.76
2735.02	6791.54
2735.89	6788.89
2736.77	6792.23
2737.65	6795.61
2738.52	6796.31
2739.4	6795.6
2740.28	6794.03
2741.15	6791.5
2742.03	6788.14
2742.9	6783.02
2743.78	6775.97
2744.65	6766.86
2745.53	6752.1
2746.41	6736.03
2747.28	6726.65
2748.16	6719.26
2749.03	6712.16
2749.91	6704.32
2750.78	6695.01
2751.66	6685.03
2752.53	6674.54
2753.4	6662.28
2754.28	6652.89
2755.15	6658.62
2756.02	6681.82
2756.9	6699.74
2757.77	6711.81
2758.65	6713.74
2759.52	6689.95
2760.39	6673.23
2761.27	6655.66
2762.14	6638.33
2763.01	6624.97
2763.88	6613.96
2764.76	6605.71
2765.63	6599.62
2766.5	6595.42
2767.37	6592.72
2768.25	6589.54
2769.12	6586.96
2769.99	6584.96
2770.86	6591.41
2771.73	6596.52
2772.61	6590.37
2773.48	6578.65
2774.35	6561.54
2775.22	6539.11
2776.09	6526.38
2776.96	6509.73
2777.83	6503.58
2778.7	6508.88
2779.57	6517.43
2780.44	6521.2
2781.31	6520.5
2782.18	6510.34
2783.05	6502.23
2783.92	6489.61
2784.79	6486.14
2785.66	6481.53
2786.53	6476.18
2787.4	6478.67
2788.27	6478.78
2789.14	6470.52
2790.01	6456.23
2790.88	6443.73
2791.75	6431.9
2792.62	6421.39
2793.48	6413.56
2794.35	6406.83
2795.22	6401.8
2796.09	6398.07
2796.96	6396.12
2797.82	6395.06
2798.69	6397.14
2799.56	6416.52
2800.43	6374.94
2801.29	6365.51
2802.16	6353.45
2803.03	6343.04
2803.9	6336.67
2804.76	6333.38
2805.63	6330.34
2806.5	6326.1
2807.36	6321.49
2808.23	6314.52
2809.09	6306.57
2809.96	6297.52
2810.83	6287.31
2811.69	6275.88
2812.56	6263.27
2813.42	6250.51
2814.29	6239.94
2815.15	6242.94
2816.02	6240.78
2816.88	6243.31
2817.75	6245.89
2818.61	6246.83
2819.48	6247.71
2820.34	6241.07
2821.21	6233.02
2822.07	6220.51
2822.94	6206.08
2823.8	6191.34
2824.66	6176.45
2825.53	6164.77
2826.39	6158.55
2827.26	6157.2
2828.12	6161.45
2828.98	6161.93
2829.85	6162.02
2830.71	6160.35
2831.57	6156.57
2832.43	6151.91
2833.3	6146.09
2834.16	6139.13
2835.02	6131.47
2835.88	6121.35
2836.75	6118.06
2837.61	6110.15
2838.47	6115.55
2839.33	6109.04
2840.19	6097.01
2841.06	6079.31
2841.92	6077.75
2842.78	6078.19
2843.64	6077.82
2844.5	6078.39
2845.36	6071.53
2846.22	6065.39
2847.08	6055.19
2847.94	6049.58
2848.81	6045.58
2849.67	6040.85
2850.53	6036.62
2851.39	6039.67
2852.25	6042.3
2853.11	6047.87
2853.97	6023.54
2854.82	6012.89
2855.68	5999.92
2856.54	5997.71
2857.4	6000.37
2858.26	5992.97
2859.12	5981.71
2859.98	5974.12
2860.84	5969.58
2861.7	5969.69
2862.56	5964.68
2863.41	5960.57
2864.27	5956.6
2865.13	5953.46
2865.99	5952.24
2866.85	5951.95
2867.7	5951.36
2868.56	5953.33
2869.42	5967.97
2870.28	5974.79
2871.13	5959.18
2871.99	5936.48
2872.85	5925.94
2873.7	5927.12
2874.56	5927.55
2875.42	5927.45
2876.27	5926.74
2877.13	5920.38
2877.99	5914.44
2878.84	5898.69
2879.7	5881.36
2880.56	5862.65
2881.41	5844.92
2882.27	5836.42
2883.12	5828.62
2883.98	5826.01
2884.83	5827.02
2885.69	5831.32
2886.54	5836.62
2887.4	5822.14
2888.25	5811.42
2889.11	5806.87
2889.96	5802.18
2890.82	5797.1
2891.67	5791.7
2892.52	5783.66
2893.38	5776.75
2894.23	5769.79
2895.09	5763.84
2895.94	5757.84
2896.79	5752.38
2897.65	5747.08
2898.5	5740.52
2899.35	5732.08
2900.21	5716.4
2901.06	5704.19
2901.91	5698.99
2902.76	5700.03
2903.62	5712.72
2904.47	5716
2905.32	5689.59
2906.17	5675.15
2907.03	5662.33
2907.88	5650.37
2908.73	5650.99
2909.58	5659.84
2910.43	5664.08
2911.28	5663.74
2912.14	5659.07
2912.99	5655.64
2913.84	5641.64
2914.69	5628.75
2915.54	5603.85
2916.39	5586.92
2917.24	5579.83
2918.09	5574.93
2918.94	5576.27
2919.79	5577.04
2920.64	5575.35
2921.49	5570.51
2922.34	5563.21
2923.19	5554.12
2924.04	5543.78
2924.89	5532.73
2925.74	5526.94
2926.59	5525.91
2927.44	5521.5
2928.29	5517.42
2929.14	5512.69
2929.98	5504.73
2930.83	5494.88
2931.68	5482.94
2932.53	5477.74
2933.38	5482.28
2934.23	5496.64
2935.07	5484.21
2935.92	5458.57
2936.77	5444.96
2937.62	5447.98
2938.47	5454.33
2939.31	5453.5
2940.16	5449.96
2941.01	5439.63
2941.85	5404.36
2942.7	5414.4
2943.55	5420.3
2944.39	5423.01
2945.24	5422.07
2946.09	5417.54
2946.93	5409.64
2947.78	5399.12
2948.63	5387.13
2949.47	5374.4
2950.32	5360.19
2951.16	5349.46
2952.01	5346.07
2952.85	5345.84
2953.7	5344.19
2954.55	5341.48
2955.39	5334.82
2956.24	5326.73
2957.08	5317.17
2957.92	5305.8
2958.77	5292.95
2959.61	5277.85
2960.46	5266.78
2961.3	5269.27
2962.15	5272.56
2962.99	5276.4
2963.83	5280.22
2964.68	5283.27
2965.52	5285.77
2966.37	5286.44
2967.21	5278.37
2968.05	5273.24
2968.9	5269.82
2969.74	5269.16
2970.58	5271.38
2971.42	5277.77
2972.27	5275.55
2973.11	5266.15
2973.95	5251.88
2974.79	5235.38
2975.64	5218.48
2976.48	5199.89
2977.32	5193.74
2978.16	5192.13
2979	5194.65
2979.85	5198.29
2980.69	5200.95
2981.53	5198.48
2982.37	5195.32
2983.21	5191.49
2984.05	5186.71
2984.89	5180.89
2985.73	5174.34
2986.57	5167.5
2987.41	5165.83
2988.25	5173.95
2989.1	5175.28
2989.94	5173.08
2990.77	5167.38
2991.62	5153.04
2992.45	5136.71
2993.29	5117.3
2994.13	5104.27
2994.97	5097.26
2995.81	5094.82
2996.65	5095.2
2997.49	5099.91
2998.33	5111.93
2999.17	5141.51
